time,pitch,intensity
0.01,--undefined--,--undefined--
0.02,--undefined--,--undefined--
0.03,--undefined--,--undefined--
0.04,--undefined--,--undefined--
0.05,--undefined--,32.091208337309766
0.06,--undefined--,31.70057746841197
0.07,--undefined--,31.52331178114235
0.08,--undefined--,32.62426617382692
0.09,--undefined--,34.051287111244484
0.1,--undefined--,35.641948610108905
0.11,--undefined--,37.7260704233535
0.12,--undefined--,38.49967412503627
0.13,--undefined--,36.87640797356092
0.14,--undefined--,33.724488051517774
0.15,--undefined--,31.229980302634452
0.16,--undefined--,30.987041201035737
0.17,--undefined--,34.209572618912944
0.18,--undefined--,41.625121088091184
0.19,--undefined--,49.11790223506885
0.2,--undefined--,54.07371644682982
0.21,--undefined--,59.33312031595625
0.22,142.44494774778994,65.06881341629321
0.23,146.1365955330586,69.29197405732361
0.24,154.90096982231134,72.02411225535666
0.25,162.917086626035,73.84041515363087
0.26,167.86619451692331,75.13476727175109
0.27,169.96031719121657,76.02221767079469
0.28,170.7915418434663,76.480984780119
0.29,171.71575799576124,76.64085536717201
0.3,174.33130653084396,76.76324934644143
0.31,177.45988775281623,76.9788812504327
0.32,179.9294627312053,77.25891021617488
0.33,180.28656024845213,77.57550319469812
0.34,180.3746916664028,77.84308946911337
0.35000000000000003,180.4596947271999,77.9913388843287
0.36,180.16875566321266,77.98412498914338
0.37,180.10407348844788,77.83390421093269
0.38,180.49932602341468,77.69597938225284
0.39,180.30980709793445,77.6107376308052
0.4,180.05237168546483,77.512173520273
0.41000000000000003,179.5694450403186,77.40499102139789
0.42,179.4974211752973,77.3401393903139
0.43,178.78317427749863,77.34790520514908
0.44,177.26024054614405,77.43552686760926
0.45,175.6552608400312,77.47942314623229
0.46,174.35390463649227,77.34157948183723
0.47000000000000003,173.16259592274304,77.09410789649051
0.48,171.9690853519514,76.74841805767646
0.49,170.69003862757063,75.94674693947044
0.5,169.43165735293084,74.29430717720818
0.51,166.6111400349736,71.68690092581544
0.52,163.9249609311811,68.4312830703872
0.53,166.13310000357643,65.20608355372173
0.54,169.92229591442208,62.69010941492697
0.55,--undefined--,62.48422181723104
0.56,--undefined--,65.36270017391885
0.5700000000000001,--undefined--,68.09527554014565
0.58,--undefined--,68.93110759993631
0.59,--undefined--,68.39388396137663
0.6,--undefined--,67.73298800129172
0.61,--undefined--,67.62357756749512
0.62,--undefined--,67.28742671897392
0.63,--undefined--,66.56643502332878
0.64,--undefined--,65.99309442576764
0.65,--undefined--,65.60148950944891
0.66,--undefined--,65.06603221209147
0.67,--undefined--,64.06712256277125
0.68,--undefined--,63.078394648225405
0.6900000000000001,184.13586050633813,63.734760507366744
0.7000000000000001,184.96145696884727,66.28164933353871
0.71,183.9175140716029,68.80473964978607
0.72,182.96334675732027,70.52621795259678
0.73,182.2685329843467,71.56825070834775
0.74,180.85403375268535,72.25851504659578
0.75,179.49482203866148,72.89882237562753
0.76,178.8690683405043,73.56210886748721
0.77,179.1920341645557,74.11793530402476
0.78,180.09508950275904,74.51390160276493
0.79,181.190413527392,74.82219429893974
0.8,181.50282917082112,74.99795013054066
0.81,181.64702291734343,74.9267473539255
0.8200000000000001,182.47743613802072,74.60490664174263
0.8300000000000001,183.6277883397004,74.25012510247795
0.84,183.88024371508703,74.20632455312085
0.85,184.36793279022723,74.43352126394782
0.86,185.3021873589692,74.44532589000959
0.87,186.3550572118831,73.92781726538723
0.88,188.47403286925203,72.94727883612802
0.89,189.5982455905059,71.70753045139512
0.9,188.9807985093448,70.31047860334633
0.91,186.71170703762905,68.73100676989395
0.92,184.63517677574322,67.01257022474152
0.93,183.98364195572282,65.33449860264831
0.9400000000000001,183.01824873576982,63.46412515664739
0.9500000000000001,182.15833890238756,61.27666359578995
0.96,180.82693351651938,59.97671575066357
0.97,--undefined--,60.09732215880092
0.98,--undefined--,60.151893679057466
0.99,--undefined--,59.942291773239305
1,--undefined--,59.92680823498554
1.01,--undefined--,59.90090361758676
1.02,--undefined--,59.683163400827524
1.03,--undefined--,59.28172786263924
1.04,--undefined--,58.87149971464618
1.05,--undefined--,58.41825561392236
1.06,--undefined--,57.73374144018562
1.07,--undefined--,57.10747263802297
1.08,--undefined--,56.904071564869646
1.09,--undefined--,56.85832379699299
1.1,--undefined--,56.372905741600995
1.11,--undefined--,55.79124330008645
1.12,--undefined--,55.79277342374608
1.1300000000000001,--undefined--,55.87571988551858
1.1400000000000001,--undefined--,55.336771716424074
1.1500000000000001,--undefined--,54.53360439987935
1.16,--undefined--,54.18761830274887
1.17,--undefined--,54.03864343671784
1.18,--undefined--,53.49892330490462
1.19,--undefined--,52.86149853489255
1.2,--undefined--,52.44387866538817
1.21,--undefined--,52.00543016866561
1.22,--undefined--,51.177014081613414
1.23,--undefined--,49.97876786966088
1.24,--undefined--,48.92809389433054
1.25,--undefined--,48.10934603083958
1.26,--undefined--,47.160435824133835
1.27,--undefined--,46.18209468646001
1.28,--undefined--,46.03404569742005
1.29,--undefined--,48.27332594441014
1.3,--undefined--,52.33332780494847
1.31,131.9657268348232,55.928339995572856
1.32,133.38773002451114,58.84431201730948
1.33,139.277045004664,61.496575421150474
1.34,141.10311957618546,63.79301029205164
1.35,141.87365786893034,65.48913482793411
1.36,142.88034262025107,66.57720138493957
1.37,144.39881770430526,67.1625436812389
1.3800000000000001,147.44646480837832,67.46056243962948
1.3900000000000001,150.50678745801275,67.88365299004715
1.4000000000000001,156.52998573499474,68.62091396246743
1.41,159.41524195493807,69.24563127242197
1.42,161.24540113201365,69.32197708011958
1.43,161.9415598693794,68.54249616050775
1.44,161.8197570463734,66.5951283233137
1.45,161.96380031657597,63.873348325348275
1.46,160.98416238850496,61.66979572058884
1.47,160.67052186275114,60.76430962756161
1.48,165.84645048601627,60.68114165472122
1.49,166.78548281342603,60.91568411653529
1.5,170.11780670755005,61.67397640323105
1.51,174.49905529452386,63.597473591203546
1.52,175.7363674194169,66.19536301721315
1.53,175.616364396778,68.18531003794972
1.54,174.3468919577178,69.6977098009626
1.55,173.0172705219814,71.02835702792648
1.56,171.62185333007542,71.82083741383741
1.57,170.09637809721673,71.97356060801923
1.58,168.75423109709297,71.74242832567175
1.59,167.9508685571198,71.36295450084965
1.6,167.51371259052405,70.92731210063792
1.61,167.18013471044367,70.46562334006036
1.62,166.40743461585583,70.0243521723082
1.6300000000000001,166.11106291766816,69.70412359842311
1.6400000000000001,165.70679009367225,69.3548151995657
1.6500000000000001,164.4529113563728,68.20275807684351
1.6600000000000001,162.01972708347688,65.4024012919054
1.67,158.2904201588317,61.19761062872283
1.68,157.78683303991775,57.44227995178057
1.69,--undefined--,55.3371916814275
1.7,--undefined--,54.31386653386337
1.71,--undefined--,54.44814020390698
1.72,--undefined--,54.92088350555269
1.73,--undefined--,56.04250611474805
1.74,153.23768375555437,59.76394319398556
1.75,156.42899419202718,64.74611281982958
1.76,159.3202518668107,68.2977354847538
1.77,159.69435687265408,70.10795832247432
1.78,158.39293882648704,70.51752954461777
1.79,157.16463982837587,70.2216445431219
1.8,155.69455037321293,70.02134794592118
1.81,154.8607853050975,70.26512511011732
1.82,154.35949365662375,70.70778549365748
1.83,154.1653516558854,70.97508103559665
1.84,153.79568884775176,71.08167261967951
1.85,153.13506383729666,71.23462505897616
1.86,152.59015482422424,71.45516320222899
1.87,152.04793277883797,71.55584991268911
1.8800000000000001,151.0258332902394,71.42931450750973
1.8900000000000001,150.32217080123027,71.23764929113031
1.9000000000000001,149.3537301300684,71.1583276360837
1.9100000000000001,148.68788957624474,71.10949768358618
1.92,147.4253543940726,70.97118500758408
1.93,146.32306600874892,70.8541250549633
1.94,144.8663542299764,70.80205868619123
1.95,143.35521965871214,70.68222846251722
1.96,141.73422632564487,70.48652186324178
1.97,141.1407281904503,70.24545229406176
1.98,139.94189640812516,69.95163892279165
1.99,139.15695590024163,69.7710379549487
2,138.9841169230014,69.9710342542816
2.0100000000000002,138.77029167018225,70.22139491984032
2.02,137.03683833615682,69.892431113929
2.0300000000000002,135.64300722812,68.97742382535172
2.04,133.5995455319542,67.58758167098645
2.05,132.65235486921605,65.51298086149471
2.06,128.64095023060727,62.84546362292228
2.07,127.79528503401511,60.09168630241602
2.08,--undefined--,57.59658667038316
2.09,--undefined--,55.958006875366955
2.1,--undefined--,55.528039914475336
2.11,--undefined--,55.60285299514116
2.12,--undefined--,55.67164042163539
2.13,--undefined--,55.69148043753456
2.14,--undefined--,55.87732693284171
2.15,--undefined--,56.09081790779586
2.16,--undefined--,56.311776537839066
2.17,--undefined--,56.72579646320669
2.18,--undefined--,56.667027384556164
2.19,--undefined--,55.51947100746236
2.2,--undefined--,53.937620413931604
2.21,--undefined--,52.77430621642957
2.22,--undefined--,51.87087438691085
2.23,--undefined--,51.25426608800945
2.24,--undefined--,51.29784675474835
2.25,--undefined--,51.44431115864672
2.2600000000000002,--undefined--,50.8908157893554
2.27,--undefined--,50.05892586828644
2.2800000000000002,--undefined--,49.500009390443445
2.29,--undefined--,49.03341891109762
2.3000000000000003,--undefined--,48.68818624111865
2.31,--undefined--,48.376012886159174
2.32,--undefined--,47.887532842068424
2.33,--undefined--,47.31399924820754
2.34,--undefined--,46.627799306548425
2.35,--undefined--,45.7910436553795
2.36,--undefined--,44.871724209892626
2.37,--undefined--,44.172369881487896
2.38,--undefined--,43.83164613601734
2.39,--undefined--,43.2954931828927
2.4,--undefined--,42.74026888339909
2.41,--undefined--,42.43101241813671
2.42,--undefined--,42.19339748017399
2.43,--undefined--,42.20111955866936
2.44,--undefined--,42.12816694190644
2.45,--undefined--,41.91316466842702
2.46,--undefined--,41.613055371271834
2.47,--undefined--,41.058340839146894
2.48,--undefined--,40.4173175587357
2.49,--undefined--,39.56066631531351
2.5,--undefined--,38.319806054822486
2.5100000000000002,--undefined--,37.01638951401853
2.52,--undefined--,35.99399587363119
2.5300000000000002,--undefined--,35.151061752056506
2.54,--undefined--,34.33137145414363
2.5500000000000003,--undefined--,33.45932735128268
2.56,--undefined--,32.09104426342267
2.57,--undefined--,30.156171642531245
2.58,--undefined--,30.20273952512086
2.59,--undefined--,36.674258451211514
2.6,--undefined--,46.45887560321672
2.61,--undefined--,53.37621172687357
2.62,--undefined--,57.57259870097716
2.63,--undefined--,59.337374997111375
2.64,--undefined--,58.89136027947895
2.65,--undefined--,56.822156409022966
2.66,--undefined--,54.77664381361332
2.67,--undefined--,55.9138623708478
2.68,191.97124375721253,61.02140080048185
2.69,193.15706323188903,65.87484771779532
2.7,193.68579151178457,68.99146470268448
2.71,191.98906031102976,70.72866746759813
2.72,191.50485583317663,71.73122676824879
2.73,191.95157889413426,72.54364530399774
2.74,192.18033494102133,73.28559846235537
2.75,191.95759726672213,73.88542414421644
2.7600000000000002,191.4436824242484,74.21345525642828
2.77,190.84490864511196,73.82300941903004
2.7800000000000002,190.00606225874463,71.91314915392182
2.79,--undefined--,67.70351094709291
2.8000000000000003,--undefined--,61.929200019676294
2.81,--undefined--,57.91243049628722
2.82,--undefined--,57.331594809647314
2.83,173.744779359751,59.579140027977374
2.84,179.30080474423292,64.53620921405576
2.85,183.78176823127777,68.58863690268208
2.86,184.1092007412172,70.44920716028103
2.87,180.70550798286732,70.3420348021357
2.88,173.6231289887851,69.11910506839917
2.89,166.78234263389044,67.79566400883203
2.9,162.2891225791773,66.30300312371087
2.91,158.03347881783932,63.67746607267431
2.92,147.77874913204053,60.68489887476379
2.93,146.0616033502393,59.594457532601275
2.94,149.2542624818302,60.05310432664848
2.95,150.14011003066616,60.71013342740475
2.96,156.95494910301753,62.19805651140332
2.97,162.16051328735313,65.23822624204868
2.98,164.6026988323738,68.73691193276602
2.99,165.5704305103518,71.02858231078584
3,166.06816137437417,72.08076250433024
3.0100000000000002,165.98559241810048,72.5683019290807
3.02,166.5668464309725,72.98446568680758
3.0300000000000002,165.7193752428258,73.42279870393193
3.04,163.03117808930193,73.7429783571628
3.0500000000000003,160.1905711535956,73.7247979104296
3.06,157.424163645097,73.10382390825878
3.0700000000000003,154.49673701766866,71.80520039517458
3.08,151.6962610018252,69.90118221395817
3.09,148.92216491561874,66.97383209104234
3.1,--undefined--,62.36348889190281
3.11,--undefined--,57.33903420575885
3.12,--undefined--,54.642528012362426
3.13,--undefined--,53.91401704453813
3.14,--undefined--,53.73363568649654
3.15,--undefined--,53.435793402806176
3.16,--undefined--,52.941859850163965
3.17,--undefined--,53.617588200610285
3.18,--undefined--,56.06198906365761
3.19,132.6630925874691,58.5347109162081
3.2,130.81417902417985,59.88238771451294
3.21,123.82218075918118,60.39025739519735
3.22,120.73083803703955,60.65221756330558
3.23,119.80441868255028,60.65344507300716
3.24,119.73287988209943,59.686143284756106
3.25,116.66763570161685,57.585877809734924
3.2600000000000002,--undefined--,56.61173867953001
3.27,--undefined--,59.15789905608744
3.2800000000000002,--undefined--,62.05746378574486
3.29,--undefined--,63.118130987854585
3.3000000000000003,--undefined--,62.78939341297555
3.31,--undefined--,61.89382437385628
3.3200000000000003,--undefined--,61.57543554694247
3.33,--undefined--,62.071321538993864
3.34,--undefined--,62.097415856937246
3.35,--undefined--,61.00428014973684
3.36,--undefined--,59.44983144066726
3.37,118.272134907535,58.871352389512744
3.38,118.88155215843192,59.938791578923585
3.39,119.06909926521348,61.49169227044907
3.4,118.53036544274333,62.30977593635413
3.41,116.5800365842586,62.14685125881895
3.42,115.18125606954132,61.585215185271636
3.43,114.65527308091855,61.44252248994544
3.44,113.52572946239432,61.653780822959625
3.45,112.66324038761456,61.80401349638931
3.46,113.67626822920916,61.99792022876498
3.47,114.77030420812538,62.31444177678373
3.48,115.75355412998044,62.595653877802214
3.49,116.62354831342883,62.690424087912334
3.5,117.59867388473029,62.57320495376709
3.5100000000000002,120.45374369029167,62.331233072263224
3.52,122.65493722330028,62.0503948789688
3.5300000000000002,124.8670073540993,61.84766583885309
3.54,126.2325813654747,61.73784990752312
3.5500000000000003,127.7350881426266,61.39307321588841
3.56,129.1329416515662,60.24832291408183
3.5700000000000003,--undefined--,57.81022139002543
3.58,--undefined--,54.02421738614815
3.59,--undefined--,51.412540806312066
3.6,--undefined--,54.73474038373989
3.61,--undefined--,61.31000144682635
3.62,--undefined--,65.52132746837451
3.63,--undefined--,67.78879413316835
3.64,--undefined--,68.42584744966305
3.65,--undefined--,67.64481389131909
3.66,--undefined--,66.01493272587084
3.67,--undefined--,64.41815396602783
3.68,--undefined--,63.47727446358501
3.69,--undefined--,63.17102972736468
3.7,--undefined--,63.01878511614369
3.71,--undefined--,62.69367933173894
3.72,--undefined--,62.17195904216046
3.73,--undefined--,61.47407314304021
3.74,--undefined--,60.62601983355858
3.75,--undefined--,59.61353365071337
3.7600000000000002,--undefined--,58.37006398802653
3.77,--undefined--,56.87412731139159
3.7800000000000002,--undefined--,55.14400852466236
3.79,--undefined--,53.20704769830381
3.8000000000000003,--undefined--,51.19386041689482
3.81,--undefined--,49.05677830615332
3.8200000000000003,--undefined--,46.77242186965159
3.83,--undefined--,44.75223419741368
3.84,--undefined--,42.867961550802065
3.85,--undefined--,40.84119733928136
3.86,--undefined--,39.4029747860577
3.87,--undefined--,38.64459919295793
3.88,--undefined--,37.44875194648958
3.89,--undefined--,36.02826948946745
3.9,--undefined--,34.859258576544185
3.91,--undefined--,33.670512565253595
3.92,--undefined--,32.8149882563133
3.93,--undefined--,32.41097833229047
3.94,--undefined--,31.986815595055443
3.95,--undefined--,31.26825212872631
3.96,--undefined--,30.728107376859434
3.97,--undefined--,30.94925331510068
3.98,--undefined--,31.502945557845727
3.99,--undefined--,31.875372996840618
4,--undefined--,32.014727573103
4.01,--undefined--,31.85707920909432
4.0200000000000005,--undefined--,31.06158687788952
4.03,--undefined--,30.053982539734008
4.04,--undefined--,30.89175385611045
4.05,--undefined--,34.717970441998546
4.0600000000000005,--undefined--,38.96799966371423
4.07,--undefined--,41.140748710132954
4.08,--undefined--,41.07918830373277
4.09,--undefined--,39.4023885207449
4.1,--undefined--,37.220274425618555
4.11,--undefined--,35.80635871362196
4.12,--undefined--,36.426653737997114
4.13,--undefined--,38.93566523726239
4.14,--undefined--,41.15754347653302
4.15,--undefined--,42.38237477127175
4.16,--undefined--,42.631461121523834
4.17,--undefined--,41.79507003565433
4.18,--undefined--,40.27777534112481
4.19,--undefined--,38.84351205505056
4.2,--undefined--,37.78218194635662
4.21,--undefined--,37.000872035813444
4.22,--undefined--,36.47301363630348
4.23,--undefined--,36.30360462669441
4.24,--undefined--,36.53412367860618
4.25,--undefined--,36.84948308423309
4.26,--undefined--,37.036325352385056
4.2700000000000005,--undefined--,37.372855677159464
4.28,--undefined--,37.883793950065794
4.29,--undefined--,38.04161403936733
4.3,--undefined--,37.720140536984005
4.3100000000000005,--undefined--,37.25704291290684
4.32,--undefined--,37.11028901381534
4.33,--undefined--,37.26318500553139
4.34,--undefined--,37.10338375475331
4.3500000000000005,--undefined--,36.686686542167806
4.36,--undefined--,37.359119104137456
4.37,--undefined--,40.38883178212143
4.38,--undefined--,44.44308833416672
4.39,--undefined--,47.45905610995451
4.4,--undefined--,49.185568779227474
4.41,--undefined--,49.99991366058848
4.42,--undefined--,50.51637396074842
4.43,--undefined--,51.13971732110247
4.44,--undefined--,51.64849017438258
4.45,--undefined--,51.92145324821374
4.46,--undefined--,51.47825955149837
4.47,--undefined--,49.76424984985176
4.48,--undefined--,47.73138182467724
4.49,--undefined--,46.22828856204087
4.5,--undefined--,44.5069586332861
4.51,--undefined--,42.587795944474294
4.5200000000000005,--undefined--,41.549939578659064
4.53,--undefined--,41.753377614302075
4.54,--undefined--,42.31323254549552
4.55,--undefined--,42.99267751138555
4.5600000000000005,--undefined--,43.754636271421596
4.57,--undefined--,44.03411414174338
4.58,--undefined--,43.37830822627787
4.59,--undefined--,42.426328030085514
4.6000000000000005,--undefined--,41.78657040394388
4.61,--undefined--,41.15326050804952
4.62,--undefined--,40.630813376639544
4.63,--undefined--,40.13310970339519
4.64,--undefined--,39.02631579742204
4.65,--undefined--,37.70483290745411
4.66,--undefined--,36.78355866847036
4.67,--undefined--,36.41834679410998
4.68,--undefined--,37.45913922686154
4.69,--undefined--,39.631722330774394
4.7,--undefined--,40.79345847637605
4.71,--undefined--,40.21843563020612
4.72,--undefined--,38.215434183655425
4.73,--undefined--,35.49767276665817
4.74,--undefined--,33.77384094031847
4.75,--undefined--,34.502697958323765
4.76,--undefined--,36.178261440192834
4.7700000000000005,--undefined--,36.71515596127685
4.78,--undefined--,35.82460061772525
4.79,--undefined--,34.631294548704155
