time,pitch,intensity
0.01,--undefined--,--undefined--
0.02,--undefined--,--undefined--
0.03,--undefined--,--undefined--
0.04,--undefined--,--undefined--
0.05,--undefined--,-26.348794295703218
0.06,--undefined--,20.788661639549684
0.07,--undefined--,40.759780877304834
0.08,--undefined--,53.06647303549238
0.09,--undefined--,60.0750894556635
0.1,--undefined--,63.083959525466305
0.11,--undefined--,63.29320028037249
0.12,--undefined--,62.20781327557515
0.13,--undefined--,60.12862679122734
0.14,--undefined--,56.18827616843202
0.15,--undefined--,51.62455310587268
0.16,--undefined--,50.126503931693605
0.17,--undefined--,55.269356802112554
0.18,--undefined--,64.38056084590497
0.19,--undefined--,70.06577979922967
0.2,--undefined--,73.07968569684951
0.21,--undefined--,74.29763863591333
0.22,--undefined--,74.44441755981248
0.23,--undefined--,74.349657771112
0.24,--undefined--,74.5373558000784
0.25,--undefined--,74.81701242833772
0.26,--undefined--,74.88965644197498
0.27,--undefined--,74.64736141872504
0.28,--undefined--,74.31234096709916
0.29,488.0217485436992,74.3037139862461
0.3,496.4356980586238,74.32591453289406
0.31,506.8245595229849,73.77584366000357
0.32,518.4002151711501,72.70312173897632
0.33,531.2979222038944,71.92594981777
0.34,536.655533724211,72.33687597177989
0.35000000000000003,537.2969993170595,73.49583964143841
0.36,536.1552085133467,74.71630983408845
0.37,533.7212203715811,75.81703274637474
0.38,529.3005600301115,76.58744730645897
0.39,523.4962433171469,76.91221137710848
0.4,514.6080532662913,76.95204953627967
0.41000000000000003,503.7960154694989,77.01319394620208
0.42,493.62015395322027,77.17603803397249
0.43,482.90512010551737,77.27522450746459
0.44,470.9754205487501,76.96622338031354
0.45,460.4126338530238,75.90168558155489
0.46,452.52829703470115,74.19053238020845
0.47000000000000003,441.0068140214321,72.46155980933985
0.48,415.9309651900727,71.09503910821215
0.49,366.91803339400036,70.22667460736285
0.5,332.0491390416417,70.28960150593576
0.51,316.69914936626435,70.82004718883565
0.52,309.50866716707736,71.13824999690955
0.53,303.1356242072424,71.13636172604598
0.54,296.2797100615812,70.79894127865353
0.55,290.9296435236046,70.23247760820226
0.56,288.63853367829876,69.79920157948317
0.5700000000000001,288.9076118903099,69.88070686718605
0.58,289.40351365530256,70.16091316212383
0.59,288.8410140844497,70.17909952166014
0.6,287.22430763492156,70.11284091786682
0.61,285.4323892416272,70.28456325829595
0.62,284.0402908103625,70.62610757929187
0.63,283.4601059743454,70.98530743541737
0.64,284.1924155550304,71.44085809278397
0.65,288.559386586916,72.10235740761642
0.66,295.0335565087784,72.97812018539852
0.67,301.0487911471045,74.11686246131343
0.68,304.1214688761602,75.4269686241325
0.6900000000000001,305.6134258739945,76.52988853287503
0.7000000000000001,306.2755538306028,77.08974712743579
0.71,306.1616017632156,77.05291077244864
0.72,306.3128646308521,76.61977178839818
0.73,306.40709615109085,76.07966240379906
0.74,306.9915700131911,75.79607526180294
0.75,307.8970384411893,75.62875248918827
0.76,308.87639861455983,75.2665361349144
0.77,309.33458008952596,75.22108316439841
0.78,308.31395192342745,76.11822669386022
0.79,306.36475582160085,77.164435277362
0.8,304.48347555501874,77.31682265558564
0.81,304.8116635376902,76.59676060621578
0.8200000000000001,308.93694482664836,75.4792773662716
0.8300000000000001,315.0578355215649,74.57194421591083
0.84,319.1101584128052,74.34828230390713
0.85,320.1527284771005,74.6566322647249
0.86,320.6220520321744,75.04517262396244
0.87,321.6013099691556,75.09798410390772
0.88,322.75275123100505,74.69946370654213
0.89,322.7797122893244,74.00798919484072
0.9,321.40311289780215,73.01026218029355
0.91,318.378520245664,71.38041535208409
0.92,312.9180500259169,69.00710492519882
0.93,303.67276944737495,66.41036536101804
0.9400000000000001,291.59803626320155,64.22870579232757
0.9500000000000001,281.57027908990375,62.92070606399968
0.96,276.6370590584982,63.04562683047027
0.97,275.6532932912553,64.43818948033818
0.98,282.0831819360268,66.95735533720084
0.99,294.0391089113148,70.45150345033795
1,299.0288766652523,73.59605271862343
1.01,300.9991680439804,75.42374120068517
1.02,303.88929975611217,76.20886634227874
1.03,306.8151569845592,76.73967893952758
1.04,308.53211359854157,77.11955908711245
1.05,308.1059947338494,76.93628642192226
1.06,304.7221392086626,76.12468504836896
1.07,302.25438827151453,74.94009968781903
1.08,302.2289628234805,73.92814942415296
1.09,301.6794576242582,73.51903323759873
1.1,300.82261619679696,73.62703600169932
1.11,300.014913778581,74.03946298462637
1.12,300.43893545016624,74.16207515928154
1.1300000000000001,302.6895988450448,73.39061246207594
1.1400000000000001,303.3145144345321,72.03839645182423
1.1500000000000001,301.9383709056978,70.97892197980376
1.16,299.8237682337835,70.567565854944
1.17,298.5234441150455,70.6101680584499
1.18,298.51228750890874,70.86592902675004
1.19,298.81711413087413,71.00786598698939
1.2,298.8187077230181,70.42347476050423
1.21,298.2224189225056,68.37381911056862
1.22,272.68906013312335,64.41933843723328
1.23,265.3833073315359,59.55992862192255
1.24,268.14127649425853,56.60513816406062
1.25,269.2374225207628,56.35059296023736
1.26,269.104782188568,57.55005627631467
1.27,266.9551882690414,59.383357888683165
1.28,265.91025377003547,60.64086601997595
1.29,--undefined--,61.23832662295808
1.3,--undefined--,61.10170035552851
1.31,--undefined--,60.038013989692324
1.32,--undefined--,59.138497893680174
1.33,--undefined--,61.87575966758056
1.34,--undefined--,68.16373256948073
1.35,--undefined--,72.27020977836757
1.36,301.5725108812774,74.21899954301655
1.37,300.10441476730784,74.82207324052607
1.3800000000000001,297.44349157108974,74.66814978167605
1.3900000000000001,295.3739847797656,74.30068130552465
1.4000000000000001,294.5374984204033,74.17159598053544
1.41,293.9154396587012,74.25427107967593
1.42,293.41438799706594,73.90994280681778
1.43,294.2371834463853,72.21775044473985
1.44,295.7837583702338,68.31935075243389
1.45,270.017726563803,62.51530692359837
1.46,241.9446520272366,59.551606280002176
1.47,237.80918072517557,63.29653585789267
1.48,260.14204513959874,67.2587290286394
1.49,271.1254454376215,70.21848311772412
1.5,276.7212506926823,72.05671860193195
1.51,290.9962948110247,72.69312018752443
1.52,297.02342122992195,72.48454367299657
1.53,295.72735512793207,72.0837429688171
1.54,295.4228054490005,71.89679064621183
1.55,292.5533677891138,71.39488873120128
1.56,286.9337538540505,69.63424012633516
1.57,274.877734107004,66.11280261510076
1.58,249.6434130490338,61.23305089877581
1.59,233.26137786040402,56.58830051449753
1.6,--undefined--,53.23102057882695
1.61,72.69576695174602,51.483460638731195
1.62,73.02793917581988,54.146684826447625
1.6300000000000001,--undefined--,61.213591500957826
1.6400000000000001,--undefined--,66.52480470020376
1.6500000000000001,--undefined--,69.22439809082198
1.6600000000000001,244.7948976679865,70.1236983718331
1.67,241.51987572460837,70.17648996109006
1.68,238.54064678314782,70.28821506127999
1.69,237.3764821675659,70.74461071530995
1.7,237.09593204632446,71.20346460275428
1.71,236.86675928456572,71.3252482838032
1.72,237.1320913664488,71.09412087996536
1.73,258.2517156506463,70.75845247784397
1.74,264.06088598409593,70.35650730615468
1.75,266.4889521204056,69.63385739114959
1.76,265.64363991092,68.4867515975431
1.77,257.6670209978812,67.34986977185692
1.78,258.62978057318134,67.10554862166474
1.79,265.1139856191036,67.80915719748892
1.8,270.13027140643396,68.7102589231177
1.81,274.0322557490762,69.5030501444949
1.82,248.8731206388183,70.33068674566685
1.83,230.03646540224162,71.68274961355134
1.84,212.28600136241758,73.30985305698373
1.85,206.29874381374108,74.19082947155845
1.86,201.86552003297692,74.07442485001482
1.87,200.80799217634691,73.54558689036469
1.8800000000000001,200.68884985768898,73.20515131494013
1.8900000000000001,200.0892115676569,73.16294711839879
1.9000000000000001,198.4896292955508,73.241525464913
1.9100000000000001,196.02771697860626,73.30298012700126
1.92,191.93927644844652,73.2169936144514
1.93,187.26472793408968,72.59080296614866
1.94,--undefined--,71.289899136192
1.95,--undefined--,69.96259754079354
1.96,--undefined--,69.22150516180207
1.97,--undefined--,69.26055704603694
1.98,--undefined--,70.03385331481174
1.99,--undefined--,70.86667231081447
2,--undefined--,71.42773627375574
2.0100000000000002,--undefined--,71.57775224447316
2.02,--undefined--,71.32108203347445
2.0300000000000002,--undefined--,70.80786619763026
2.04,--undefined--,69.62708571900038
2.05,--undefined--,67.06471469708747
2.06,--undefined--,62.516543541453
2.07,--undefined--,55.89707920161449
2.08,--undefined--,50.05884826673219
2.09,--undefined--,49.81834860767847
2.1,--undefined--,53.77023376551268
2.11,--undefined--,58.101331652962166
2.12,--undefined--,62.79828872738823
2.13,354.0611040668182,66.82262048388189
2.14,356.6599058374578,68.18790042992139
2.15,355.468740833841,66.63094302210153
2.16,337.74287274721826,62.21809346068995
2.17,--undefined--,55.89098317547845
2.18,--undefined--,51.34585795704703
2.19,--undefined--,50.77573779388632
2.2,--undefined--,50.32456727714212
2.21,--undefined--,50.01512419733937
2.22,299.2449378364466,53.32193419764642
2.23,276.21341561463026,60.78924254659459
2.24,282.4776814506748,66.96182611778602
2.25,284.7475755935168,70.35281349418972
2.2600000000000002,279.84634716762,71.60000498501486
2.27,274.24835843378577,71.39766312928072
2.2800000000000002,266.22793034305676,70.07032841011949
2.29,255.29441908723544,67.48874091921815
2.3000000000000003,219.71915353981714,63.5759142724661
2.31,201.5651664053115,59.36021839073163
2.32,197.30478216760713,56.982754189496276
2.33,196.0465734886554,56.5604112334392
2.34,195.21266347010558,56.57980539305787
2.35,199.63849932729357,56.67934728760598
2.36,202.03448502624286,56.4518023108275
2.37,203.00976405743785,56.247943401923244
2.38,221.4020626200649,57.257732032314166
2.39,237.70876689905737,59.733208075362526
2.4,243.7400360475863,62.504777235874826
2.41,238.31016650433335,64.6091188522706
2.42,230.18364755999534,65.89226022257273
2.43,224.87698222151494,66.599510240972
2.44,223.49211667246652,67.13991117489519
2.45,224.29946022401023,67.85419214158988
2.46,226.23387735093823,68.64404966592281
2.47,228.30517612857568,69.2156381287402
2.48,231.03007220272562,69.52160014418469
2.49,235.0044004226586,69.7154167635297
2.5,238.54245120358664,69.86166471663411
2.5100000000000002,240.89115567698497,69.67039526435403
2.52,241.53587673644194,68.65867368453868
2.5300000000000002,238.48507255545613,66.72071752203505
2.54,235.3734113490163,64.76833947944212
2.5500000000000003,232.69587671263483,64.60387644451589
2.56,229.9749239555055,66.38865846553668
2.57,228.4624779879485,68.14005931980069
2.58,228.26318863700695,69.42972994060114
2.59,229.23599651341672,70.51128134965818
2.6,230.57438596781756,71.30318724765137
2.61,231.03336605188179,71.81862544060996
2.62,230.2685932182731,72.10979354906827
2.63,228.2435013547107,72.15711055916262
2.64,225.82115841839868,71.99010494508077
2.65,222.6468958422967,71.61489806223818
2.66,219.40734282626306,70.76991193061943
2.67,216.64098564604208,68.70704245882479
2.68,212.64153289057384,65.90006891388792
2.69,212.33085620968794,66.22168638441046
2.7,213.1990459461111,70.08157307791961
2.71,212.94450698170397,72.15066776151886
2.72,212.34519667609175,72.74680060479066
2.73,212.2046376907807,72.89992815822149
2.74,211.69161580609455,73.05172983556233
2.75,210.4901076963036,73.16456008637927
2.7600000000000002,208.66747005603276,73.15149051808525
2.77,206.55731878120716,73.03993466062943
2.7800000000000002,204.1881553617041,72.84707632279651
2.79,201.49520177878,72.46419659176732
2.8000000000000003,198.05218710118066,71.91711052146668
2.81,193.09590950325102,71.42611134866951
2.82,190.18976154312864,71.07600576985077
2.83,191.96672937223946,70.67615494565278
2.84,195.3448828476145,69.7219790687239
2.85,197.86606986298685,67.65765229140239
2.86,201.16232240876545,64.29878805023816
2.87,208.45534508926977,59.74229291612814
2.88,--undefined--,54.582055785626565
2.89,--undefined--,50.59657575538863
2.9,--undefined--,48.891600532340206
2.91,--undefined--,48.322685843157885
2.92,--undefined--,48.42700166262066
2.93,--undefined--,49.93097620954347
2.94,225.65093509867452,53.73673855462585
2.95,206.7535768561387,57.17997661097964
2.96,193.3426557115725,59.01454464596332
2.97,186.33833311033996,59.92932286314956
2.98,179.79743743190633,60.24429918824907
2.99,174.9384055845468,60.13489026080272
3,173.83243087464854,59.90898886481271
3.0100000000000002,174.49231330465724,59.44271009118713
3.02,173.82346867460856,58.13170815193444
3.0300000000000002,168.3832818977197,55.535951884793604
3.04,160.1716073704417,54.184059971481396
3.0500000000000003,--undefined--,58.65710883648546
3.06,188.32436442784572,64.53293545597812
3.0700000000000003,187.66560156317684,67.98951672461689
3.08,186.4187524452643,69.83613479152834
3.09,185.4301093692898,70.50046151045189
3.1,184.33560301797252,69.77251851957149
3.11,181.87305637170945,67.26131056950925
3.12,171.94006287663012,63.25798387928798
3.13,167.9457826978438,60.14140861821163
3.14,171.38105781880438,61.00857249539951
3.15,177.84958075636513,64.20385244043831
3.16,180.06021650959025,66.54462566074794
3.17,180.54139484206695,67.45313237644811
3.18,179.11943672814655,67.21538876141653
3.19,177.3227860551423,66.23780890551527
3.2,175.43406018216263,64.83954520454722
3.21,173.6225655273269,63.26311476057344
3.22,172.8556021766221,61.832244779123286
3.23,172.30104791325587,60.965843663488585
3.24,171.84565177867813,60.69082919008932
3.25,172.19319618632932,60.67411776615887
3.2600000000000002,172.6894457914804,61.12639125298252
3.27,173.58711640628553,62.87147472076075
3.2800000000000002,170.57473620120533,65.53734525093321
3.29,169.7436246759747,67.34485964780751
3.3000000000000003,169.99361203075108,67.96825121663771
3.31,169.88752099403374,68.0836598320257
3.3200000000000003,168.84566208641928,68.19739077737992
3.33,167.70318513245698,68.41776075862646
3.34,166.98061710271838,68.74379213568672
3.35,166.39525243583205,69.0819093126416
3.36,165.89872434755105,69.17888495742886
3.37,165.57318188331095,68.75889709952148
3.38,164.93735445219053,67.45809523460927
3.39,164.19383169515484,65.29519222185827
3.4,167.38377347211045,64.08245501981821
3.41,169.54261023885053,65.3826566541072
3.42,171.24744664026434,66.66853037243853
3.43,172.67266430151577,66.18187617549255
3.44,174.24579695750438,63.5981605198779
3.45,166.84156080208757,58.71895812626175
3.46,--undefined--,52.020158842073926
3.47,--undefined--,45.92517425145439
3.48,--undefined--,43.642520122475624
3.49,--undefined--,45.0867149973286
3.5,--undefined--,47.010567067676156
3.5100000000000002,--undefined--,47.77575909394771
3.52,--undefined--,48.32948963041913
3.5300000000000002,--undefined--,51.47286590348684
3.54,--undefined--,57.612913526474365
3.5500000000000003,--undefined--,62.23927566737903
3.56,--undefined--,64.75646600352386
3.5700000000000003,--undefined--,66.01951526082463
3.58,--undefined--,66.89887553445823
3.59,--undefined--,67.79891870011093
3.6,--undefined--,68.35890829996569
3.61,--undefined--,68.29694539246411
3.62,--undefined--,67.90785032791976
3.63,--undefined--,67.42349484070044
3.64,--undefined--,66.67106080235908
3.65,82.27085746170623,65.60760323643383
3.66,79.45503860863082,64.56581185806759
3.67,79.16708493050003,63.98205601462884
3.68,80.00386331780801,63.813737025079185
3.69,80.37902222823078,63.516072813022674
3.7,80.57342699468676,62.61157477339585
3.71,78.7220974523328,61.12965625043001
3.72,--undefined--,59.77292519123652
3.73,--undefined--,59.119101323629266
3.74,--undefined--,58.73756013665657
3.75,--undefined--,57.98047280531495
3.7600000000000002,146.00320542290746,56.75287659650541
3.77,145.3671597545168,55.44227287122208
3.7800000000000002,--undefined--,55.48757997401349
3.79,--undefined--,57.724114229656216
3.8000000000000003,--undefined--,60.016803496123984
3.81,--undefined--,60.8709858082909
3.8200000000000003,--undefined--,60.100448249382936
3.83,--undefined--,58.07889683229232
3.84,--undefined--,54.97535481516852
3.85,--undefined--,50.03474969874652
3.86,--undefined--,42.86726195264969
3.87,--undefined--,37.49475293374436
3.88,--undefined--,42.89145996305101
3.89,--undefined--,56.63600657808871
3.9,236.38614271499787,66.05493688236932
3.91,237.03215954921828,71.73263944102956
3.92,234.73857979873736,74.63566005544936
3.93,229.8416760083654,75.48995078973495
3.94,221.32378658974795,74.96603424815167
3.95,215.95678479034373,73.43560377482639
3.96,211.06632701974797,70.68410012803643
3.97,221.3490809187206,66.37788768951134
3.98,231.0361865003373,61.32465092486588
3.99,232.71558172022452,57.878785574083714
4,232.50645035942327,57.671072514103074
4.01,233.15570688515615,59.82956665895827
4.0200000000000005,246.40211795859406,62.419208713676575
4.03,279.5889652982306,65.34926925616979
4.04,303.070814640069,68.67465572465758
4.05,301.4398628477219,71.59334686804768
4.0600000000000005,280.9164474986156,73.87656667566262
4.07,274.3982069964847,75.41537142807536
4.08,275.37760020691974,76.13070032294652
4.09,277.13259902084474,76.24475126641892
4.1,278.6594893802076,76.13809068980413
4.11,280.03297938332736,76.08244553713024
4.12,281.63302773288024,76.13704638492288
4.13,284.5403748829022,76.28318796941936
4.14,288.85068073356683,76.47422271443217
4.15,293.7788639731498,76.66649107626154
4.16,297.9693907934373,76.66103019610019
4.17,300.5988984219858,75.82916511150904
4.18,302.2390219391207,73.42405392024803
4.19,304.63994042948985,69.32544441250096
4.2,304.3809746007428,65.00156883616823
4.21,301.7944485059264,63.028913785614485
4.22,298.85957300535665,64.47947393364042
4.23,297.41106624586865,69.08988062143233
4.24,302.6820330986131,73.91948914462753
4.25,304.17811529293846,76.29142245759167
4.26,301.9250517989319,76.35472356746625
4.2700000000000005,298.3730617254568,75.07248995941784
4.28,295.4388545028727,73.63699867134682
4.29,294.6237753578788,72.7213253379891
4.3,295.00370451088054,72.33960767252678
4.3100000000000005,296.2891220765369,72.31643915076819
4.32,298.310439553311,72.41916972623378
4.33,301.51289556827203,72.51883491639079
4.34,303.6800002697296,72.84740474168176
4.3500000000000005,303.55774855537044,73.66722541822556
4.36,302.939313107796,74.6532248686442
4.37,301.82138827176794,75.33286804768838
4.38,299.380331946712,75.38604796246439
4.39,299.1334682977266,75.02741357947483
4.4,303.691508427293,75.25248095783796
4.41,307.0859019634363,75.85379758937766
4.42,308.64159248783193,75.77114329093125
4.43,310.3974713163657,75.27030651919282
4.44,311.5998580394492,74.78590394989932
4.45,313.11026689215396,74.46030312136928
4.46,315.267624466214,74.4594862178765
4.47,318.3992764845008,74.64283192014342
4.48,321.4804036062037,74.82864181693003
4.49,321.5291821811668,75.06641766587002
4.5,318.01983839811294,75.29911537250662
4.51,311.8856476141855,75.56646459869471
4.5200000000000005,304.8080243673923,75.8610134930097
4.53,298.95132304583825,75.96559987026016
4.54,294.3454453761018,75.73017131787059
4.55,289.6397023985531,75.30680937815552
4.5600000000000005,285.14291906025557,75.04177741810753
4.57,280.68463438733033,74.9350465876144
4.58,275.49199466516137,74.77433119235289
4.59,270.2660435721569,74.42665600013781
4.6000000000000005,263.73115247631495,73.90654855710586
4.61,257.3513448476252,73.65998793054442
4.62,250.254416638976,73.85624394400203
4.63,243.12762384304895,74.04747422181599
4.64,235.6500948860905,73.86178319868047
