time,pitch,intensity
0.01,--undefined--,--undefined--
0.02,499.3798480363486,--undefined--
0.03,503.2175484368123,--undefined--
0.04,512.5630864337425,--undefined--
0.05,519.3951789931931,67.5471585706061
0.06,519.1424410966757,67.55498913497067
0.07,513.212267966263,68.23074870846628
0.08,504.10493311452655,69.61058011612643
0.09,493.79064610059083,70.67267210654538
0.1,482.242485382492,71.18045471988891
0.11,466.7389851787202,71.68844067394423
0.12,451.7142560629248,72.0795808024818
0.13,439.15237185191893,71.54521762704356
0.14,427.26418854226387,70.19057793967959
0.15,407.47644031823415,69.17500623840016
0.16,379.9051453257805,69.57473258074097
0.17,358.1708200851914,70.49266928892244
0.18,340.2994078254955,71.25881764380839
0.19,323.9077166709775,71.70605415258225
0.2,311.30740469448705,71.79443760054964
0.21,306.72208044491583,71.70282597832006
0.22,309.0008488819198,71.81537321017197
0.23,314.4891269619485,72.62657884798584
0.24,321.6338519920221,73.50634843953893
0.25,328.5598893259719,73.93048258574827
0.26,335.59094783518987,74.46814566253514
0.27,346.8261062348543,75.57143458299733
0.28,360.27020622641044,76.56964459098366
0.29,371.66992399433343,76.9699476445823
0.3,382.9447994661935,77.23636907998713
0.31,390.44478342938226,77.49886178471934
0.32,394.29370894409396,77.55448665416
0.33,397.8147668920909,77.45124616876714
0.34,399.5023358263389,76.98402213350474
0.35000000000000003,397.4070050858622,76.09203811666215
0.36,389.73838548577646,74.55597887640217
0.37,376.7961051744976,72.09128439131315
0.38,351.77126361586994,69.08119095158226
0.39,--undefined--,67.49546536056255
0.4,--undefined--,68.03551967628523
0.41000000000000003,--undefined--,68.23442769905876
0.42,--undefined--,67.20669789160841
0.43,--undefined--,65.39517520831087
0.44,--undefined--,64.19542145999796
0.45,--undefined--,64.18748803500559
0.46,--undefined--,64.78776092383043
0.47000000000000003,--undefined--,65.54053111451644
0.48,390.39619135283687,66.5227396977944
0.49,399.3260851520745,68.68760270519744
0.5,419.9779714642594,71.1922322847601
0.51,436.7834179445746,72.64924868475418
0.52,440.17239145022495,72.38693206454066
0.53,420.66208383170283,70.10784846717559
0.54,387.08630095569305,65.90664967482508
0.55,339.6638241845165,60.73969022752905
0.56,310.7120400479238,57.625638294416696
0.5700000000000001,314.5149081044171,57.60198760941926
0.58,328.18039552944,58.60424245784607
0.59,355.01375006895006,60.901101846088594
0.6,387.61949271736626,64.17435972506992
0.61,415.94963661620386,66.9374586954123
0.62,432.9434953899167,68.34716263524302
0.63,450.60025032187787,68.75317325862173
0.64,463.7191400677926,69.198145235009
0.65,467.10320161429826,69.71034859084428
0.66,466.53552785996635,69.3680510417465
0.67,463.0671257341677,68.3514875098127
0.68,458.8538372354408,67.5498173806645
0.6900000000000001,453.32430503641314,66.96082684649487
0.7000000000000001,441.8870595091457,66.49001013402108
0.71,426.8625338809612,66.51464036620313
0.72,419.23117653170686,66.91829558472612
0.73,418.1130678090326,67.4079442895012
0.74,416.830281678783,67.84728047817798
0.75,414.29842706055763,68.17734415360143
0.76,412.8400561750895,68.56216689118955
0.77,425.89846299967996,69.08839068951252
0.78,442.7028378589285,69.84074131716915
0.79,447.3694655583385,70.68260407753375
0.8,449.43816867292867,71.30431475113419
0.81,454.8091257297346,71.83104723624628
0.8200000000000001,465.4001312717434,72.68604343249538
0.8300000000000001,480.06096730591315,73.86542048487915
0.84,495.3471990766687,74.64540826214378
0.85,509.52479830631233,74.30049389638054
0.86,526.0359150824345,73.0108854991138
0.87,542.9412217271881,72.30449623456723
0.88,552.5382606575877,73.08397628291465
0.89,554.1235283542342,74.000637909366
0.9,550.4996892592087,74.11914418625148
0.91,542.2682315177112,73.55850252584347
0.92,530.3509795443978,72.57826035386721
0.93,513.6433227340261,71.03737845018458
0.9400000000000001,487.9190889285373,69.02366367588985
0.9500000000000001,--undefined--,67.34990120301724
0.96,--undefined--,67.19434388114277
0.97,--undefined--,68.98006956539685
0.98,--undefined--,70.87567847166721
0.99,--undefined--,71.45562776908861
1,--undefined--,70.71387301304154
1.01,213.04942953920343,69.44047617882758
1.02,211.99414261200758,68.53964960338119
1.03,210.02930141919913,68.23235293911108
1.04,207.86727128470605,68.16542315972419
1.05,204.8057579880951,68.08340779780454
1.06,201.05167143405333,67.65821631275377
1.07,196.22913654367758,66.55524655746984
1.08,191.08102818072,64.72487612604654
1.09,183.6841606620294,62.4007558483323
1.1,178.66490501105093,59.60544342167922
1.11,--undefined--,55.860871443938635
1.12,--undefined--,51.8859652880582
1.1300000000000001,--undefined--,49.90411023459017
1.1400000000000001,--undefined--,48.66246780526872
1.1500000000000001,--undefined--,47.31092945526811
1.16,--undefined--,47.253604507333264
1.17,--undefined--,47.6615499045778
1.18,--undefined--,47.22233735129659
1.19,--undefined--,46.38720731564679
1.2,--undefined--,45.21607211465524
1.21,--undefined--,43.53014931071526
1.22,--undefined--,42.343567898250356
1.23,--undefined--,41.83342298585009
1.24,--undefined--,40.78482943663292
1.25,--undefined--,38.95202647590661
1.26,--undefined--,36.74549312937249
1.27,--undefined--,35.20215588722458
1.28,--undefined--,35.05895245661358
1.29,--undefined--,34.913164670090595
1.3,--undefined--,33.89581606904007
1.31,--undefined--,33.03405408417375
1.32,--undefined--,32.87397851209005
1.33,--undefined--,32.15714888870373
1.34,--undefined--,31.114991132864773
1.35,--undefined--,31.260446626405056
1.36,--undefined--,31.691023521490976
1.37,--undefined--,31.724476241619335
1.3800000000000001,--undefined--,32.07353826568758
1.3900000000000001,--undefined--,32.77184655489656
1.4000000000000001,--undefined--,32.61084940285557
1.41,--undefined--,31.89530580689342
1.42,--undefined--,31.877824273751038
1.43,--undefined--,32.080255072161094
1.44,--undefined--,32.17131253332217
1.45,--undefined--,31.906612559696704
1.46,--undefined--,31.28958815561704
1.47,--undefined--,31.23593587487996
1.48,--undefined--,31.747165898690913
1.49,--undefined--,31.77196320877943
1.5,--undefined--,31.397452491287577
1.51,--undefined--,31.245090191655557
1.52,--undefined--,31.35194522957034
1.53,--undefined--,31.8641950295521
1.54,--undefined--,32.10952962819566
1.55,--undefined--,31.677107390578534
1.56,--undefined--,31.58457977006025
1.57,--undefined--,38.15245169322508
1.58,--undefined--,47.997223407099575
1.59,--undefined--,53.54676604158536
1.6,--undefined--,54.91585560392909
1.61,--undefined--,52.35778309582364
1.62,--undefined--,46.23895605002149
1.6300000000000001,--undefined--,40.50832291381758
1.6400000000000001,--undefined--,39.76918654307707
1.6500000000000001,--undefined--,39.872975588855894
1.6600000000000001,--undefined--,39.3268419816121
1.67,--undefined--,38.66350214787499
1.68,--undefined--,38.18643707852479
1.69,--undefined--,37.52398127489233
1.7,--undefined--,37.22884154965863
1.71,--undefined--,37.851769176985925
1.72,--undefined--,37.998961162261295
1.73,--undefined--,36.99679092756945
1.74,--undefined--,36.30087449546855
1.75,--undefined--,36.647755556242814
1.76,--undefined--,37.050267675985985
1.77,--undefined--,37.524108643199874
1.78,--undefined--,46.948645219919236
1.79,--undefined--,58.02420213907695
1.8,--undefined--,64.90591081810079
1.81,--undefined--,68.78226114616506
1.82,--undefined--,70.39144692022458
1.83,--undefined--,69.7275587843754
1.84,--undefined--,67.19035072743706
1.85,--undefined--,64.94620466340555
1.86,--undefined--,63.96561297078361
1.87,--undefined--,62.869255019705406
1.8800000000000001,--undefined--,61.533338033526086
1.8900000000000001,--undefined--,60.404020769771755
1.9000000000000001,--undefined--,59.78058809385448
1.9100000000000001,--undefined--,59.58824794411348
1.92,--undefined--,59.513414600963756
1.93,--undefined--,60.0995965603233
1.94,--undefined--,61.58376026393663
1.95,--undefined--,63.33753946548213
1.96,--undefined--,64.56790590686245
1.97,--undefined--,65.28857251241492
1.98,--undefined--,66.13234033326263
1.99,--undefined--,66.8197330085551
2,--undefined--,66.87837822942305
2.0100000000000002,--undefined--,67.07098773365544
2.02,--undefined--,68.40570978773495
2.0300000000000002,--undefined--,70.33262312966032
2.04,--undefined--,72.08971457938378
2.05,--undefined--,73.40353758380945
2.06,--undefined--,74.36228301669038
2.07,--undefined--,74.25612394373923
2.08,--undefined--,73.11953378445223
2.09,--undefined--,72.63202405537517
2.1,--undefined--,72.7724081677888
2.11,--undefined--,72.60209734436005
2.12,--undefined--,72.50010812212592
2.13,--undefined--,72.69717211467388
2.14,--undefined--,73.06396847775474
2.15,--undefined--,74.02154481577688
2.16,--undefined--,74.7956938640401
2.17,--undefined--,74.80932377170842
2.18,--undefined--,74.81633208969015
2.19,--undefined--,74.70104579704747
2.2,--undefined--,74.55594547080183
2.21,--undefined--,75.42633083504227
2.22,--undefined--,76.63826286860754
2.23,--undefined--,77.07194051307198
2.24,--undefined--,76.99024723453798
2.25,--undefined--,77.39304612827544
2.2600000000000002,339.7512779295775,78.5579258888692
2.27,343.63281371548976,79.77035169516158
2.2800000000000002,348.89965962954483,80.28580258111496
2.29,351.66022559965523,80.05353274416271
2.3000000000000003,353.00860537378634,79.13926429115794
2.31,356.5642744604018,77.71586588378365
2.32,360.1887403575922,77.4162275431096
2.33,359.826095618079,78.13056571186452
2.34,363.022562470613,78.53524144103447
2.35,--undefined--,79.33189858964464
2.36,135.17239865132746,80.4336694128235
2.37,134.9727331373905,80.69327294997869
2.38,135.09975846365418,79.99886380607386
2.39,135.4111152388841,79.40407904205217
2.4,135.3682800953037,79.35746475067809
2.41,135.0479477964911,79.61207646940976
2.42,134.93050064950754,79.9585715910501
2.43,135.01605217874484,79.97586809681576
2.44,134.82751002405806,79.84399944828675
2.45,112.184788171826,79.51706053494259
2.46,89.50118810818636,79.21325012272683
2.47,89.16866290318963,79.2647963359
2.48,88.86516637508802,79.4018490910058
2.49,88.79134246240417,79.29513996578466
2.5,88.85447955692595,78.76012819682761
2.5100000000000002,80.32329609277483,78.14156182664804
2.52,71.69253018393675,77.92611978489947
2.5300000000000002,74.40509711153646,78.01482447412234
2.54,77.03524936531059,78.03232574170221
2.5500000000000003,76.88928079937867,77.86206378128863
2.56,83.35239144315713,77.7888523251266
2.57,89.62501359625281,77.97931305978482
2.58,89.57873339968309,78.30747695999537
2.59,89.66046179695029,78.87150802335876
2.6,89.54342256974962,79.37686888472504
2.61,89.56348287565137,79.20849776323739
2.62,89.55551918267966,78.70978557405786
2.63,89.3282144647242,78.6290027891177
2.64,89.3438196818072,78.49139956773927
2.65,93.80052013864061,77.89122715266933
2.66,98.06540711974397,77.39196251281169
2.67,--undefined--,77.31589361323572
2.68,--undefined--,77.49371209492404
2.69,--undefined--,77.73230296349225
2.7,--undefined--,78.12324704704373
2.71,218.56885156288175,78.6507097633228
2.72,218.31185240567646,79.35686593951147
2.73,199.7462976053372,79.92788716116442
2.74,181.28806370354496,79.87206712876198
2.75,181.118430766255,79.2361637824468
2.7600000000000002,181.1354716072731,78.66185227707211
2.77,181.04954565945363,78.38697376524439
2.7800000000000002,180.91391883256725,78.21249595743801
2.79,--undefined--,77.93383630180432
2.8000000000000003,--undefined--,77.37402789649207
2.81,--undefined--,77.03032215270632
2.82,--undefined--,77.09351870587385
2.83,--undefined--,77.0628904897594
2.84,--undefined--,77.19869785974646
2.85,--undefined--,77.40305454272392
2.86,--undefined--,77.23182588570944
2.87,--undefined--,77.55045812829398
2.88,--undefined--,78.51519415275209
2.89,--undefined--,78.87349716930284
2.9,--undefined--,78.46614677199457
2.91,--undefined--,77.9864775709268
2.92,--undefined--,77.73335621489002
2.93,--undefined--,77.49883029637573
2.94,--undefined--,77.05375349966636
2.95,--undefined--,76.69446764617703
2.96,--undefined--,76.86180599899541
2.97,--undefined--,77.25503759062069
2.98,--undefined--,77.6150040259636
2.99,--undefined--,77.76956070629908
3,--undefined--,77.16929178263646
3.0100000000000002,--undefined--,76.10425978486533
3.02,--undefined--,75.79698810722074
3.0300000000000002,--undefined--,76.56029576809688
3.04,--undefined--,77.44282412452255
3.0500000000000003,--undefined--,77.86081683506943
3.06,--undefined--,77.79222001942674
3.0700000000000003,--undefined--,77.05697601371789
3.08,--undefined--,76.15837378370628
3.09,--undefined--,75.43429413240877
3.1,--undefined--,74.40992729426998
3.11,--undefined--,73.79902437283096
3.12,--undefined--,74.14706539805015
3.13,--undefined--,74.82844150341302
3.14,--undefined--,75.23415085885053
3.15,--undefined--,75.0366332783925
3.16,--undefined--,74.43664037745188
3.17,--undefined--,74.28281132732499
3.18,--undefined--,74.81028972064496
3.19,--undefined--,75.39229596552482
3.2,--undefined--,75.65764257823619
3.21,--undefined--,75.66524722632073
3.22,--undefined--,75.26185390217158
3.23,--undefined--,74.50126394460479
3.24,--undefined--,73.75439829184909
3.25,--undefined--,73.15886379722444
3.2600000000000002,--undefined--,73.29587663168674
3.27,--undefined--,74.14555635883647
3.2800000000000002,--undefined--,75.21126803990359
3.29,--undefined--,75.87803269806804
3.3000000000000003,--undefined--,75.43512238818339
3.31,--undefined--,74.49773987582238
3.3200000000000003,--undefined--,74.12310067746974
3.33,--undefined--,74.05865652166997
3.34,--undefined--,74.31236726977045
3.35,--undefined--,74.87350765341967
3.36,--undefined--,74.75575992576796
3.37,--undefined--,73.57921124581395
3.38,--undefined--,72.60997831966648
3.39,467.2637635103701,73.02781149515592
3.4,467.81553771312906,73.58324609526983
3.41,467.9719334105009,73.42964344592849
3.42,--undefined--,72.87659077542813
3.43,--undefined--,72.48206909675585
3.44,--undefined--,72.7872344403997
3.45,--undefined--,73.03195224218354
3.46,--undefined--,72.67544831927462
3.47,--undefined--,72.78512136172083
3.48,--undefined--,73.55719395329355
3.49,--undefined--,74.34111954661523
3.5,--undefined--,75.25907617119864
3.5100000000000002,309.8220452141818,75.97441904741089
3.52,312.93927199829557,76.35447951432865
3.5300000000000002,324.2864202744064,76.42652872396242
3.54,335.3835797282094,76.2477943108801
3.5500000000000003,337.93345654658424,76.12155609059072
3.56,337.4166809499253,75.60757883951803
3.5700000000000003,332.25715217515204,75.06415660969594
3.58,326.5983044085876,75.08089507525125
3.59,329.26727278290605,74.90354756415174
3.6,315.3745814337074,74.6954846402076
3.61,298.8278792289992,74.87538481755003
3.62,295.95369704387497,75.29396601812614
3.63,301.4973647411793,75.59644645006037
3.64,308.94004865284387,75.23945480892958
3.65,299.7146333971802,74.75007510802573
3.66,296.8661341625925,75.0898553942249
3.67,301.58969147619337,75.62128678772513
3.68,299.8270824972696,76.26256776704672
3.69,298.23643346550114,76.97440274834412
3.7,299.16978039381553,77.27459299433269
3.71,300.9873075324989,77.16397132494556
3.72,303.48951252773224,76.97314389380911
3.73,306.36770885349733,77.31790301780416
3.74,308.8379021686256,77.84720251192012
3.75,310.90426305744353,77.81641363021059
3.7600000000000002,312.7061617265717,77.63642321930786
3.77,314.4249752709127,77.78828991468573
3.7800000000000002,316.5407078385539,77.56562968145545
3.79,318.52122446056353,76.48518046876664
3.8000000000000003,320.44151072990434,75.56672878236552
3.81,322.18430844592314,75.77107536591382
3.8200000000000003,324.3566631810592,76.10548427120972
3.83,327.6575230639617,76.0841947221657
3.84,331.8118930068162,76.05709649959029
3.85,336.47622994867186,76.17109580668091
3.86,340.1364519875227,76.35631607632325
3.87,342.23908697101473,76.32736883290912
3.88,341.5686348662253,75.72623807017139
3.89,--undefined--,74.13845207747775
3.9,--undefined--,71.87481609792185
3.91,--undefined--,70.34357155129142
3.92,--undefined--,69.48699864175353
3.93,--undefined--,68.74273991396774
3.94,--undefined--,68.5552167171388
3.95,--undefined--,69.05713753931418
3.96,--undefined--,69.16949195152917
3.97,--undefined--,69.23801431765973
3.98,--undefined--,70.23392971464891
3.99,--undefined--,70.66462638529985
4,--undefined--,69.92339915876923
4.01,--undefined--,69.65188309741367
4.0200000000000005,--undefined--,70.76986125537242
4.03,--undefined--,72.84405925762115
4.04,--undefined--,74.30448701902262
4.05,--undefined--,74.07819681893112
4.0600000000000005,343.82241140259634,73.31634754901238
4.07,342.53117396752293,74.477574580268
4.08,342.53162296063925,76.51791289959488
4.09,344.79472369158344,77.93308483409385
4.1,345.7456195423669,78.72034308209216
4.11,349.3444547409618,78.842739573471
4.12,358.4095623596686,78.39309500951921
4.13,367.4877325789383,78.13504004013069
4.14,373.57153353694906,78.25161027291694
4.15,377.1969625468148,78.37444756716396
4.16,379.47414734085595,78.36830434051532
4.17,381.7044144559906,78.15031358670197
4.18,383.18262474112873,77.88035357937781
4.19,383.37627078328006,77.85111964169025
4.2,381.66292262508097,77.93771813102694
4.21,377.9005776231844,77.51179603760873
4.22,372.45968203055605,76.3084368786284
4.23,366.20096931954043,75.01038773478939
4.24,359.1315925469709,74.43461063492073
4.25,348.75688181905144,74.76068720331982
4.26,338.05087348316425,75.50932473126116
4.2700000000000005,328.3101106621506,75.83307372070804
4.28,--undefined--,75.74894593207337
4.29,--undefined--,75.86732164640537
4.3,--undefined--,76.3339352003898
4.3100000000000005,--undefined--,76.76458354230572
4.32,--undefined--,76.3406775847767
4.33,--undefined--,74.84428666885793
4.34,--undefined--,73.21477703899582
4.3500000000000005,--undefined--,72.04035748787905
4.36,--undefined--,70.36477005280064
4.37,--undefined--,67.93199799930007
4.38,--undefined--,66.63155346029996
4.39,--undefined--,67.53129045320647
4.4,--undefined--,68.6637105731786
4.41,--undefined--,69.60954292101498
4.42,--undefined--,70.48930235354064
4.43,--undefined--,70.54938730790785
4.44,--undefined--,69.81672127741267
4.45,--undefined--,69.15142271440057
4.46,--undefined--,68.73253477086819
4.47,--undefined--,68.50302795540387
4.48,--undefined--,68.44994701365229
4.49,--undefined--,68.10091302754844
4.5,--undefined--,67.79713836813231
4.51,--undefined--,67.57277392243003
4.5200000000000005,--undefined--,67.51605909107727
4.53,--undefined--,68.25054222809082
4.54,--undefined--,69.09341030971712
4.55,--undefined--,69.25949600932074
4.5600000000000005,--undefined--,69.08405337010956
4.57,--undefined--,69.70709862635812
4.58,--undefined--,71.2076238008177
4.59,--undefined--,72.2320764317732
4.6000000000000005,--undefined--,72.4809441437567
4.61,--undefined--,72.20401011871121
4.62,--undefined--,70.75107648967918
4.63,--undefined--,69.55219539085242
4.64,--undefined--,70.46834422199261
4.65,--undefined--,70.63499895829914
4.66,--undefined--,69.81549902653507
4.67,--undefined--,69.6228285944475
4.68,--undefined--,70.16878023656051
4.69,--undefined--,71.35157655573455
4.7,--undefined--,71.14486294766381
4.71,--undefined--,69.01264862619297
4.72,--undefined--,67.19170406934943
4.73,--undefined--,67.097578108197
4.74,--undefined--,67.66408606866614
4.75,--undefined--,68.24247292393464
4.76,--undefined--,68.01390623396353
4.7700000000000005,--undefined--,66.95310512796496
4.78,--undefined--,66.53179677024423
4.79,--undefined--,66.49592926185642
4.8,--undefined--,66.31837066068187
4.8100000000000005,--undefined--,66.69773012328442
4.82,--undefined--,66.82080521698443
