time,pitch,intensity
0.01,--undefined--,--undefined--
0.02,--undefined--,--undefined--
0.03,--undefined--,--undefined--
0.04,--undefined--,--undefined--
0.05,--undefined--,39.30931377971947
0.06,--undefined--,42.59596386918958
0.07,--undefined--,45.30630245744906
0.08,--undefined--,47.72386313223314
0.09,--undefined--,48.84374899033544
0.1,--undefined--,49.02747067446692
0.11,--undefined--,49.583077273077244
0.12,--undefined--,50.518979322962224
0.13,--undefined--,51.48708753764217
0.14,--undefined--,52.60198081846281
0.15,--undefined--,53.82989621505448
0.16,--undefined--,54.68135836721419
0.17,--undefined--,54.50487196973105
0.18,--undefined--,53.95879752305676
0.19,--undefined--,53.892303168920414
0.2,--undefined--,54.045384153525326
0.21,--undefined--,54.32437479318367
0.22,--undefined--,54.6110663625975
0.23,--undefined--,55.03179150070938
0.24,--undefined--,55.55147665597475
0.25,--undefined--,56.01305396639495
0.26,--undefined--,57.02073378415316
0.27,--undefined--,58.85033464494209
0.28,--undefined--,61.138709692823426
0.29,--undefined--,63.05102998949291
0.3,--undefined--,63.70371693622842
0.31,--undefined--,63.26537380314272
0.32,--undefined--,62.66998316478084
0.33,--undefined--,62.98820865090511
0.34,--undefined--,64.59188098531133
0.35000000000000003,421.0381138540084,66.45446695338681
0.36,425.0741686458003,67.72993222294261
0.37,432.39728178943034,67.96573595825633
0.38,441.0868162154338,67.61095606899241
0.39,448.9810198576372,67.39127336245144
0.4,453.2604147357341,67.32259982042724
0.41000000000000003,456.9576739732381,67.51263194892596
0.42,459.7830200976998,67.87926866711804
0.43,461.0646771472101,67.98763003196362
0.44,462.18512852199933,68.10317724899748
0.45,463.1232722797902,68.34906884385161
0.46,464.3258556716419,68.47343643263521
0.47000000000000003,465.9931777665865,68.4186044077549
0.48,467.2781730262536,68.32977246894578
0.49,468.05302780791845,68.52730181460015
0.5,467.6982534601917,69.02176708654069
0.51,467.0607140708432,69.42113215191016
0.52,465.9038040251507,69.57045904615278
0.53,464.37359765817996,69.62140287548918
0.54,461.96527550765614,69.65001126691858
0.55,458.4654680798055,69.54894939599319
0.56,451.52820112996454,69.43882333528325
0.5700000000000001,439.51226049002514,69.47234161082174
0.58,426.14924115494375,69.42936954651981
0.59,417.5540212548752,69.19603800853754
0.6,411.770508334536,68.86499802826964
0.61,405.6354555136962,68.73947425344782
0.62,400.35834820962754,68.96042494479879
0.63,396.42517863627205,69.09984096809392
0.64,390.4691477175814,69.00973403096063
0.65,383.1659292470953,68.92250843703413
0.66,375.17334484694095,68.87527814600853
0.67,366.9521989575287,68.88632735667265
0.68,359.51220362946236,68.96495242460152
0.6900000000000001,353.8601233396221,68.99389717686364
0.7000000000000001,348.7688285886242,68.83496167281402
0.71,342.69876555395666,68.63603609615987
0.72,335.7039264386992,68.57467345275651
0.73,328.90775007227813,68.61710679117171
0.74,322.6623169463355,68.79112147557639
0.75,316.6577309005561,68.97946446807558
0.76,310.68537365527425,68.97411999321277
0.77,304.0311009276144,68.72837599898548
0.78,293.8199459122532,68.29918678827634
0.79,282.46815873386026,68.01768230024815
0.8,273.1750513704353,67.92590383655579
0.81,265.4522094886253,67.89201458436807
0.8200000000000001,256.37657668016175,67.90292373563266
0.8300000000000001,250.01513162740915,67.72799514730414
0.84,240.7353236736082,67.40735405344172
0.85,233.05797645599935,67.05076247560922
0.86,228.69065194311213,66.7165996639436
0.87,225.50276131525774,66.5281081487528
0.88,223.71802395928586,66.49495742508776
0.89,222.87766615092468,66.28882966022555
0.9,222.95099301600163,65.9475764145002
0.91,225.5673145152046,65.78604762668392
0.92,228.01865996813675,65.2381584375228
0.93,227.41186864432257,63.93965888661134
0.9400000000000001,--undefined--,62.71973173876639
0.9500000000000001,--undefined--,61.984421674026876
0.96,--undefined--,61.57870889925044
0.97,--undefined--,61.74714860020969
0.98,--undefined--,62.13618023287048
0.99,--undefined--,61.922969806394484
1,--undefined--,61.03030435121498
1.01,--undefined--,60.24565419311567
1.02,--undefined--,59.95075369672314
1.03,--undefined--,59.718119205486346
1.04,--undefined--,59.51845239902961
1.05,--undefined--,59.609512456253185
1.06,--undefined--,59.59030795926276
1.07,--undefined--,59.11696964696452
1.08,--undefined--,58.44643627160409
1.09,--undefined--,58.08741380974112
1.1,--undefined--,58.51060170316842
1.11,--undefined--,59.24805528417366
1.12,--undefined--,59.49626703902588
1.1300000000000001,--undefined--,59.01340630072837
1.1400000000000001,--undefined--,58.53598672370149
1.1500000000000001,--undefined--,59.12716590427285
1.16,--undefined--,60.422171596101265
1.17,--undefined--,61.46585450865721
1.18,--undefined--,62.66474562075449
1.19,--undefined--,65.82663595916901
1.2,--undefined--,68.24615016368546
1.21,--undefined--,67.69923065053409
1.22,--undefined--,65.16760952179772
1.23,--undefined--,63.044816442167175
1.24,--undefined--,61.67914186760045
1.25,--undefined--,60.32525083160947
1.26,--undefined--,59.30702722109485
1.27,--undefined--,58.40007882599731
1.28,--undefined--,57.968334538421665
1.29,--undefined--,58.18272208394448
1.3,--undefined--,58.40487546091405
1.31,--undefined--,58.49507749343161
1.32,--undefined--,58.21082273983145
1.33,--undefined--,57.20710894507711
1.34,--undefined--,56.42333546327447
1.35,--undefined--,56.43736664152015
1.36,--undefined--,56.04823635414959
1.37,--undefined--,55.563020193816826
1.3800000000000001,--undefined--,55.94823562709592
1.3900000000000001,--undefined--,56.384575592764584
1.4000000000000001,--undefined--,55.676270507909834
1.41,--undefined--,54.18761040067469
1.42,--undefined--,53.298205895921456
1.43,--undefined--,53.54378794677267
1.44,--undefined--,53.8019595382121
1.45,--undefined--,54.04961132471865
1.46,--undefined--,54.339363157239625
1.47,--undefined--,54.03031448698481
1.48,--undefined--,53.475710213645876
1.49,--undefined--,53.06518473356921
1.5,--undefined--,52.333995188905185
1.51,--undefined--,51.327384283042925
1.52,--undefined--,50.642671046838764
1.53,--undefined--,51.61410992553089
1.54,--undefined--,56.52384482925932
1.55,--undefined--,62.14583926366002
1.56,--undefined--,64.21043285812318
1.57,--undefined--,62.654000994934805
1.58,--undefined--,58.77082098881419
1.59,--undefined--,55.7251632532663
1.6,--undefined--,54.37236027503514
1.61,--undefined--,53.93491738292903
1.62,--undefined--,54.714722108024
1.6300000000000001,--undefined--,55.09852324538961
1.6400000000000001,--undefined--,54.428810962498694
1.6500000000000001,--undefined--,53.10579706831647
1.6600000000000001,--undefined--,51.647799501562496
1.67,--undefined--,50.41213085103242
1.68,--undefined--,49.3303856828956
1.69,--undefined--,47.95497698472534
1.7,--undefined--,46.28156546815195
1.71,--undefined--,45.05147541853575
1.72,--undefined--,45.191309581787216
1.73,--undefined--,45.95435067052083
1.74,--undefined--,49.38693362260126
1.75,--undefined--,59.75570005454012
1.76,--undefined--,68.01647734924707
1.77,--undefined--,72.59088195912322
1.78,--undefined--,74.29439291927635
1.79,334.2343629692537,74.12367407533434
1.8,344.6774356673139,73.33738811061771
1.81,353.8524912382272,72.6568551789771
1.82,358.2210559081217,72.11723190450138
1.83,361.21986655903584,71.90573916274707
1.84,363.6475334094805,71.88317361533831
1.85,365.6838597480315,71.90900857676603
1.86,367.7303365179377,72.05578930631238
1.87,369.45753027725596,72.24073450734802
1.8800000000000001,369.68231561389433,72.33514504583597
1.8900000000000001,368.45784407276585,72.12796872429601
1.9000000000000001,367.2374726932864,71.6090247874035
1.9100000000000001,367.2880381971183,71.00895087462446
1.92,368.0054379354079,70.40930117887405
1.93,368.07164042921875,69.9888587425823
1.94,367.0286819968456,69.94719551760815
1.95,365.44659611768196,70.08982511431759
1.96,363.9345448582107,70.21123953655784
1.97,362.66726250087106,70.18462189764992
1.98,361.41807220909334,69.84838164196428
1.99,360.1445322961641,68.97292770731295
2,359.43386191272657,67.24150538509103
2.0100000000000002,360.122320562153,64.84509019161315
2.02,359.92160663530024,63.12084752448055
2.0300000000000002,358.29295600764686,63.02612405091901
2.04,357.4242983781527,63.544110688734904
2.05,356.9383816509177,64.03344985645909
2.06,357.5074713252643,64.62435937870251
2.07,358.0758418853718,65.29054906459257
2.08,358.06139521546066,65.70939978156471
2.09,357.454616904995,65.79996475429293
2.1,356.37191113593855,65.86942978463324
2.11,355.5206350594311,66.10202881698488
2.12,354.2725382520715,66.32019081382599
2.13,353.04721203385844,66.35111303125142
2.14,352.4864379950869,66.15324036464496
2.15,351.5647422104033,65.75180150989148
2.16,348.51514997687605,65.1163694837052
2.17,341.85083970083156,64.01513998569301
2.18,330.09802379864556,62.12426750246273
2.19,318.6630731073632,59.367671066429786
2.2,--undefined--,56.32454783721036
2.21,--undefined--,54.591957706206024
2.22,--undefined--,54.61907544528105
2.23,--undefined--,54.15627491408242
2.24,--undefined--,52.88357842225149
2.25,--undefined--,51.86719026895505
2.2600000000000002,--undefined--,51.04388508390182
2.27,--undefined--,50.53564449628331
2.2800000000000002,--undefined--,52.00875275047718
2.29,298.8591919195398,55.95532734345272
2.3000000000000003,299.3205343406625,58.93451135302627
2.31,299.90299158847506,59.433815425839505
2.32,291.71794156956224,57.63278463678388
2.33,--undefined--,54.358273580168444
2.34,--undefined--,51.816401055336954
2.35,--undefined--,51.98853693466287
2.36,--undefined--,53.03646895118445
2.37,--undefined--,53.837326175905304
2.38,--undefined--,54.451385436559086
2.39,--undefined--,54.903026573190864
2.4,--undefined--,55.24810373224669
2.41,--undefined--,55.667195405642
2.42,--undefined--,56.31366025994933
2.43,--undefined--,56.87260903977736
2.44,--undefined--,57.054784794148624
2.45,--undefined--,57.01504696144279
2.46,--undefined--,56.95612325591926
2.47,--undefined--,57.25416238298706
2.48,--undefined--,60.70576742724977
2.49,437.632258905307,67.23573150783206
2.5,439.8738322988112,71.39769406898127
2.5100000000000002,437.0413150898691,73.37566810952662
2.52,412.8196406196274,74.3685191353225
2.5300000000000002,392.5878058025757,74.86913937278703
2.54,385.15978698294856,74.70154883986196
2.5500000000000003,383.2466581539139,74.06666145801907
2.56,382.6451163934493,73.47374199849938
2.57,381.4383350364102,73.13808218493443
2.58,379.3200093275967,72.93354971943317
2.59,377.63112634916587,72.78292964833028
2.6,376.401109600303,72.6247368703062
2.61,375.0525793235729,72.41002615163582
2.62,374.06989652329895,72.21598446231025
2.63,373.31840797291125,72.10970266943595
2.64,372.263392985525,72.12007767562697
2.65,371.8841336233333,72.1645276161065
2.66,372.3744877719952,72.10396488521084
2.67,372.9682338709292,72.04037571321292
2.68,373.52541010329367,72.11396571343889
2.69,373.7278625331328,72.25526200480842
2.7,372.7669156409147,72.59868962895808
2.71,370.6289357573232,73.31541753270483
2.72,368.05695904097587,74.02727484932207
2.73,366.02470807372237,74.23863353732064
2.74,365.1670456215408,74.05972973754834
2.75,364.7190073529731,74.09524054932395
2.7600000000000002,364.5836811738884,74.27042560173365
2.77,365.47770379559194,73.7927838485695
2.7800000000000002,366.43276025342215,72.22428108112918
2.79,416.1473727540816,69.79952289109824
2.8000000000000003,452.58536367582127,67.62360131231205
2.81,461.58500481314354,66.07462171630326
2.82,467.1020515664658,63.800099023400094
2.83,--undefined--,60.43240288579422
2.84,--undefined--,58.76786574803079
2.85,--undefined--,62.591844379217996
2.86,--undefined--,67.79210582967711
2.87,--undefined--,71.31927597057462
2.88,--undefined--,73.01537907337756
2.89,--undefined--,73.3918167164283
2.9,341.7146670439779,73.3386455574691
2.91,350.11461274342895,73.31484602860309
2.92,353.9206219250186,73.10721369652137
2.93,353.4081051412624,72.7741682344839
2.94,354.17297538990454,72.54069760320442
2.95,356.0858473389493,72.31450940736005
2.96,358.0460263619822,72.04825740963396
2.97,360.59477294550027,71.80557315655449
2.98,364.11172174738687,71.60805005835412
2.99,368.88531006265663,71.44884061130176
3,375.00146452629633,71.37714939932691
3.0100000000000002,381.71791040133456,71.50027478291872
3.02,387.8803804598798,71.63786710679484
3.0300000000000002,392.46259833529234,71.58685003633947
3.04,395.2131294138407,71.35027281525329
3.0500000000000003,397.24994571300203,71.1249315524719
3.06,399.26818537037997,71.06826827372592
3.0700000000000003,401.4869775994929,71.01799358429305
3.08,403.3327664733618,70.79978587650591
3.09,403.44175953233514,70.45550212840155
3.1,401.7018067717283,70.23213546034845
3.11,399.8740651503967,70.32660405506744
3.12,399.61725151010586,70.21028892725012
3.13,403.0256721082292,69.18768969677191
3.14,407.01464260050886,67.59317278802199
3.15,408.44955568640125,66.63844005335402
3.16,408.58694380517295,66.7845094431941
3.17,409.3973562879987,67.49698971840836
3.18,410.74816807725074,68.25784787272362
3.19,412.59125153270173,68.76198807113399
3.2,414.60873699275226,68.98322359259538
3.21,416.0247764169694,69.07421199034856
3.22,416.89459702823007,69.15423435731509
3.23,417.4566080985902,69.17284198187089
3.24,417.4059909335789,69.19599900232079
3.25,417.01716504442714,69.36907425822125
3.2600000000000002,417.0438496247792,69.66130635345887
3.27,416.8300669664309,69.93122566430365
3.2800000000000002,415.39728700880994,70.01187957715536
3.29,412.3108395229289,69.76415287257434
3.3000000000000003,408.73575031972825,69.23671179927258
3.31,405.9291050950285,68.81778886964777
3.3200000000000003,402.510174546377,68.87060124089064
3.33,397.78741983822715,68.96445231051573
3.34,392.79063991580637,68.5252707641252
3.35,383.8429281949727,67.69968583908555
3.36,373.8136666824633,66.49166612896813
3.37,360.6436209167859,64.5290913537401
3.38,344.4080355872816,62.27326922199237
3.39,330.7162663335081,60.804891939092485
3.4,322.76194971603854,60.471770649326714
3.41,325.36587417176634,60.97018474397361
3.42,332.040288128865,61.81245903084212
3.43,335.0844869525607,62.70478768016352
3.44,336.44871292942105,63.58530312902265
3.45,337.1532680633717,64.57018005614408
3.46,338.85059510958433,66.4885028717677
3.47,341.4189336636949,69.74246004902973
3.48,345.5343586335309,72.53906295871262
3.49,346.2974391925063,73.6174508434064
3.5,342.39005919748354,73.53585905991261
3.5100000000000002,340.44912559246706,73.1884161909237
3.52,339.91809160377517,72.56527233097346
3.5300000000000002,340.06687649740735,71.83659760413084
3.54,341.44673323584783,71.5051033420271
3.5500000000000003,342.89049243301275,71.43137407896097
3.56,343.4500795535369,71.25227309910889
3.5700000000000003,343.80313547410793,70.3674028105614
3.58,352.2637402147343,67.93253149779018
3.59,362.1871330926471,63.9555074447987
3.6,363.7434227617887,59.80704935896913
3.61,--undefined--,56.37623974552835
3.62,--undefined--,53.14988734141569
3.63,--undefined--,50.196246254062785
3.64,--undefined--,47.73087435495499
3.65,--undefined--,45.79645041103718
3.66,--undefined--,44.5208261816748
3.67,--undefined--,43.64288577139032
3.68,--undefined--,42.68818962685976
3.69,--undefined--,42.39193037040291
3.7,--undefined--,42.88321613758785
3.71,--undefined--,43.013842555652516
3.72,--undefined--,43.10039032180689
3.73,--undefined--,46.37107938896686
3.74,--undefined--,52.86876581734066
3.75,--undefined--,57.62418406342987
3.7600000000000002,--undefined--,59.830171437761294
3.77,--undefined--,59.99599575380701
3.7800000000000002,--undefined--,59.749212724630866
3.79,338.5059101314815,61.98735538420075
3.8000000000000003,348.19958188057575,66.68621759094322
3.81,357.9713166786899,70.29002189599059
3.8200000000000003,362.6611790089482,72.0627228012027
3.83,362.50993828527953,72.47672659972045
3.84,359.69229619394366,72.22478276746256
3.85,355.48394977104965,71.74292637354077
3.86,349.71708295303455,71.003346316474
3.87,345.02467114577047,69.97664497147194
3.88,341.5947268791841,68.92536893704568
3.89,337.54197465615175,68.22395845172575
3.9,333.1527095824201,67.67926186609152
3.91,327.67305627694833,66.6998788364273
3.92,323.00852444338454,65.43150084464928
3.93,318.654577663818,64.30327971823067
3.94,313.8008319509345,63.482577940189536
3.95,303.972806824223,62.98842805276334
3.96,--undefined--,62.33799154624149
3.97,--undefined--,61.12499070769251
3.98,--undefined--,58.917303137052436
3.99,--undefined--,55.36292476626898
4,--undefined--,51.04540247575187
4.01,--undefined--,47.66567747848528
4.0200000000000005,--undefined--,45.131536885666904
4.03,--undefined--,42.70964057795318
4.04,--undefined--,41.7471302057046
4.05,--undefined--,47.3917422902224
4.0600000000000005,--undefined--,56.46630548464999
4.07,--undefined--,62.6765423806529
4.08,280.23677443916614,66.42449546252489
4.09,295.5359945973066,68.8120011319741
4.1,316.4445637470599,70.69939175599201
4.11,323.5337453255509,71.98835043415546
4.12,323.6077359984039,72.45950601459396
4.13,323.35929826377435,72.2220735659441
4.14,323.6165679205361,71.59377445912077
4.15,324.8314399498046,70.99100002179671
4.16,327.2633654439383,70.62002587760833
4.17,330.1808606554887,70.42967588273888
4.18,333.96756350499373,70.39021112632494
4.19,340.2785513246042,70.50450973864619
4.2,369.8164250791149,70.79764783412556
4.21,404.92439002920474,71.44694923152318
4.22,419.7083347837057,72.46202701129938
4.23,443.61004174794544,73.33606089121544
4.24,470.61146875489555,73.462698243993
4.25,497.05796455572005,72.45931702745425
4.26,517.0641395112119,69.93328275234005
4.2700000000000005,528.7181758656756,65.28231657679915
4.28,--undefined--,58.01773306361416
4.29,--undefined--,49.72596401403427
4.3,--undefined--,45.62437888410836
4.3100000000000005,--undefined--,45.46724770611211
4.32,--undefined--,45.45358771358619
4.33,--undefined--,44.73682797114368
4.34,--undefined--,43.61823053987936
4.3500000000000005,--undefined--,42.40612749705777
4.36,--undefined--,41.88157649001167
4.37,--undefined--,43.07747815417252
4.38,--undefined--,48.81635129304291
4.39,--undefined--,55.08314127431805
4.4,--undefined--,58.641227345295405
4.41,--undefined--,59.96331448481208
4.42,--undefined--,60.05919685214396
4.43,--undefined--,60.114943459448476
4.44,--undefined--,60.32386451166274
4.45,--undefined--,60.030628190086276
4.46,--undefined--,59.35681352400221
4.47,--undefined--,58.91170610901068
4.48,--undefined--,58.74556615138921
4.49,--undefined--,58.885374857120276
4.5,--undefined--,59.12078504713587
4.51,--undefined--,58.468902439267644
4.5200000000000005,--undefined--,56.43875911571766
4.53,--undefined--,53.56310703177639
4.54,--undefined--,50.29493620744649
4.55,--undefined--,45.88219021118304
4.5600000000000005,--undefined--,39.9532816951639
4.57,--undefined--,33.936221848007584
4.58,--undefined--,30.10237308314979
4.59,--undefined--,28.115484265241506
4.6000000000000005,--undefined--,27.25192029785271
4.61,--undefined--,27.570463623656305
4.62,--undefined--,28.42051946615209
4.63,--undefined--,28.678836148589095
4.64,--undefined--,27.92159967976169
4.65,--undefined--,26.62404475255505
4.66,--undefined--,25.41087955617827
4.67,--undefined--,24.467379064766764
4.68,--undefined--,23.91720614899839
4.69,--undefined--,23.591483776999684
4.7,--undefined--,23.096742421987216
4.71,--undefined--,22.8475562857293
4.72,--undefined--,23.759220547416685
4.73,--undefined--,25.20485569623707
4.74,--undefined--,26.06147114367641
4.75,--undefined--,26.13679755691578
4.76,--undefined--,26.020592761763012
