time,pitch,intensity
0.01,--undefined--,--undefined--
0.02,--undefined--,--undefined--
0.03,--undefined--,--undefined--
0.04,--undefined--,--undefined--
0.05,--undefined--,51.634402081992064
0.06,--undefined--,56.22967405194643
0.07,151.7957721664648,60.343636583472005
0.08,149.92763122077702,63.06471075312433
0.09,146.28165377218698,64.55806865662908
0.1,142.97864476730678,65.47185606791302
0.11,141.59703956545326,66.31041253504559
0.12,141.26222707457958,66.97093427790468
0.13,141.0837658843216,67.28523479632125
0.14,140.80325651312947,67.63098502472188
0.15,139.815137972273,68.2483815077909
0.16,138.8489662184672,68.70121155896403
0.17,137.88866519205786,68.66383223030773
0.18,136.56333080865042,68.23137191857099
0.19,135.61977290993593,67.55186040113986
0.2,134.9856716275833,66.5643031496501
0.21,133.9310753672507,65.58698944167843
0.22,133.62412223525806,65.36949950972424
0.23,133.85148550024027,65.57578955083005
0.24,134.62903878083017,65.67342267338286
0.25,137.61487698262368,65.73670063619694
0.26,140.1352368034391,65.80409715729167
0.27,144.1320879666818,65.93651380880236
0.28,147.36072632947034,66.4690904751953
0.29,149.32318568744765,67.5033934001563
0.3,151.41144009804196,69.04232433977562
0.31,152.78616635341396,70.75719066018334
0.32,153.9317234398256,72.18372793168899
0.33,155.4561291339816,73.39772696990512
0.34,156.62242359927342,74.42269834595284
0.35000000000000003,157.46751374965652,75.1391523388238
0.36,158.6937257301208,75.59679155221463
0.37,160.3423198619804,75.82855460989605
0.38,161.8709770757291,75.82252891951336
0.39,163.1324544732855,75.67491841403079
0.4,164.43068761758147,75.58879285812799
0.41000000000000003,166.2056312879072,75.63552388468206
0.42,168.29982033147672,75.69006261892929
0.43,170.80964998949756,75.64606974418061
0.44,173.29376973581307,75.68220365318774
0.45,174.8988593465952,75.76477510766605
0.46,176.31880943069808,75.6105851836639
0.47000000000000003,178.31286646569217,75.15134741485139
0.48,180.30866972969335,74.52172278822698
0.49,181.9261459461246,74.04202449425226
0.5,183.55701189986326,73.83378833031703
0.51,185.40679847882043,73.7696560771288
0.52,187.86630740348377,73.62704130733494
0.53,191.14970119662644,73.30365004227411
0.54,194.27963167003747,72.96573228392198
0.55,196.8563958222776,72.69463158595121
0.56,200.4340186622901,72.52692517520235
0.5700000000000001,204.56222587596454,72.54852150372405
0.58,209.7795126076891,72.51744086403444
0.59,214.88223220820066,72.27055900755876
0.6,218.80796959000955,71.86408641602637
0.61,224.807495526332,71.34303084092664
0.62,230.6388738939472,70.8787819414726
0.63,235.8996290339245,70.42274183852754
0.64,241.0965542726447,69.88256163479937
0.65,245.91151172265594,69.40846892494614
0.66,249.72128886448888,68.91508998790316
0.67,254.8672952586305,68.24378225995604
0.68,257.4934014498908,67.7079972967508
0.6900000000000001,256.0281859370713,67.48993238072983
0.7000000000000001,252.87168556547033,67.31478899621523
0.71,246.35045522574958,67.10501363706324
0.72,237.9743108883121,67.03904625074446
0.73,228.28090978761546,66.8740563234004
0.74,217.29369844907322,66.34240226655895
0.75,199.85170755960655,65.68818969314641
0.76,182.10455400969644,64.92002018147494
0.77,169.43676041461063,63.70262269240411
0.78,156.487585952221,62.20530205604424
0.79,146.02038669580318,60.89683327646062
0.8,137.18840096866177,60.27827293360716
0.81,133.33494244598165,60.417673580925566
0.8200000000000001,135.72953416489233,61.12505710349712
0.8300000000000001,138.65707504351622,62.410717498077446
0.84,140.7617691320433,63.7261700427708
0.85,142.0777895797433,64.62698981115426
0.86,141.71659454503157,65.36569354929712
0.87,140.35132885713202,66.18421585095057
0.88,138.10265686823638,66.94299718154736
0.89,136.78398743570665,67.54945771663874
0.9,136.73957035985077,67.83686551893376
0.91,136.510138689479,67.33685822900613
0.92,135.59088426421053,65.38826372780858
0.93,--undefined--,61.51118488965325
0.9400000000000001,--undefined--,56.03486198204698
0.9500000000000001,--undefined--,50.70509614690957
0.96,--undefined--,47.36599805075986
0.97,--undefined--,46.755996761183454
0.98,--undefined--,50.37103937052045
0.99,--undefined--,55.03000145126255
1,--undefined--,57.85095134569354
1.01,--undefined--,59.31964129925858
1.02,--undefined--,60.28357883656967
1.03,--undefined--,61.09785557185753
1.04,--undefined--,61.767851424327304
1.05,--undefined--,62.2360982364244
1.06,--undefined--,62.53461646410287
1.07,--undefined--,62.96324536674335
1.08,--undefined--,63.69156812234807
1.09,--undefined--,64.66719558255116
1.1,--undefined--,65.37864230712528
1.11,--undefined--,65.002696373526
1.12,--undefined--,63.21075459247361
1.1300000000000001,--undefined--,59.94315770835568
1.1400000000000001,--undefined--,55.387303743856805
1.1500000000000001,--undefined--,51.744733561708635
1.16,--undefined--,51.465229813018546
1.17,--undefined--,51.37421573849889
1.18,--undefined--,50.73621503259968
1.19,--undefined--,49.99099806972645
1.2,--undefined--,49.56781265423603
1.21,--undefined--,49.984826963482256
1.22,--undefined--,50.79077076898923
1.23,--undefined--,51.328873107045744
1.24,--undefined--,51.43228114837717
1.25,--undefined--,52.50548018574072
1.26,--undefined--,57.88141971811369
1.27,145.08199475166998,63.918324367174826
1.28,145.67100444283577,67.45535646947123
1.29,146.06602235195038,68.88950725644307
1.3,146.78497619560014,69.41455636331419
1.31,148.93423301440464,70.01794531006938
1.32,152.49619688492754,70.57165474084523
1.33,156.43010264609595,70.81258474747828
1.34,161.48645144764026,71.0345614742463
1.35,167.19885025558182,71.53103622324227
1.36,173.8599287228852,72.04352891788633
1.37,181.02866536327267,72.3073197140921
1.3800000000000001,189.3336599704643,72.30382449390042
1.3900000000000001,196.38169084573764,72.11650856434247
1.4000000000000001,201.8012573492293,71.84449637495695
1.41,207.87165280360165,71.47334013104634
1.42,214.1520505849794,70.93494508690667
1.43,220.08718675332767,70.4090320404105
1.44,225.81870299388987,70.37125569875656
1.45,230.3032022801381,70.75729887286605
1.46,233.46857854017813,70.9878923324365
1.47,236.41201507595775,70.8107748329474
1.48,238.4318604481151,70.27158339791232
1.49,238.0772882983148,69.77212329883155
1.5,235.45934783255368,69.9003686402356
1.51,231.4469872042445,70.3507657169958
1.52,222.64683389947507,70.03055022649347
1.53,207.19530098999417,68.10321697052427
1.54,194.64546259549377,64.41051117402351
1.55,--undefined--,60.3316594896424
1.56,--undefined--,58.846119028401624
1.57,--undefined--,58.986275454458976
1.58,--undefined--,58.55838564368741
1.59,--undefined--,57.81375145736491
1.6,--undefined--,57.54916185556606
1.61,--undefined--,57.41671954217571
1.62,--undefined--,57.28795988390695
1.6300000000000001,--undefined--,57.83059900437625
1.6400000000000001,--undefined--,59.26422580945061
1.6500000000000001,--undefined--,59.86754769169791
1.6600000000000001,--undefined--,59.0350607093351
1.67,--undefined--,58.83968329776314
1.68,--undefined--,60.44737071116689
1.69,--undefined--,61.728884767478164
1.7,--undefined--,62.764163019618294
1.71,--undefined--,66.18291251553836
1.72,161.18715137886392,70.64830328661468
1.73,158.57874076843518,73.28836006973363
1.74,151.27507686439446,74.20507056848575
1.75,144.3571796866113,74.17558296398003
1.76,140.0620797565467,73.84204776476773
1.77,138.07399902441455,73.4015277112024
1.78,137.53826769609338,72.92325254277357
1.79,137.5538030306134,72.64223554967686
1.8,137.6666554959408,72.70960616485363
1.81,137.827671129159,72.76344230929449
1.82,138.72931159720602,72.41259433146487
1.83,141.34271692747495,71.67874047360482
1.84,144.04691414783076,70.94597535965444
1.85,145.93427216217384,70.45982785591126
1.86,147.87082118189966,70.02544320976865
1.87,150.94289873125854,69.50945462946947
1.8800000000000001,154.13807951393056,69.01017681812503
1.8900000000000001,159.25711752115424,68.54381381304506
1.9000000000000001,167.40196497913436,68.07177312227962
1.9100000000000001,173.90136316586924,67.69119901549347
1.92,181.83904444696282,67.57995903928516
1.93,190.15761701425384,67.6876519073373
1.94,196.2132575243478,67.76989690064686
1.95,202.85246717429803,67.75403198690552
1.96,209.52649827374933,67.68061493166982
1.97,214.70786926537997,67.53955671319586
1.98,218.42587672677746,67.33793992433468
1.99,220.2795615929798,67.32666225374942
2,218.95387157538028,67.66712866616663
2.0100000000000002,214.63176579081053,67.76082333178219
2.02,206.85746256585873,66.92633011428772
2.0300000000000002,197.858350022151,64.83327179056371
2.04,--undefined--,62.04959325610716
2.05,--undefined--,60.57126142886214
2.06,--undefined--,59.77480339134003
2.07,--undefined--,58.304658873404044
2.08,--undefined--,59.37562284387731
2.09,144.549547378954,63.461318003076975
2.1,140.0781346082056,66.50476177937405
2.11,133.91265516221253,67.7707433295208
2.12,130.43163632613118,67.49408162634782
2.13,127.96723198290444,66.20627953231471
2.14,124.98159562584105,64.54019294163182
2.15,121.30620922950774,62.6354504329616
2.16,--undefined--,59.819844173594866
2.17,--undefined--,55.30206787306557
2.18,--undefined--,49.273200680811
2.19,--undefined--,44.07083847166925
2.2,--undefined--,42.4743305162899
2.21,--undefined--,43.08161321585242
2.22,--undefined--,42.99597261671722
2.23,--undefined--,42.15726686331571
2.24,--undefined--,41.30114002023182
2.25,--undefined--,40.8671633539251
2.2600000000000002,--undefined--,40.774080485612444
2.27,--undefined--,40.32333028971606
2.2800000000000002,--undefined--,38.86247238741189
2.29,--undefined--,38.298024276960824
2.3000000000000003,--undefined--,45.936108371032574
2.31,--undefined--,53.39785620494201
2.32,--undefined--,59.640213238880676
2.33,156.28711575783908,65.89080762392334
2.34,153.52153737682784,70.39032515603222
2.35,152.37199249430435,73.18666716095579
2.36,154.3427301944159,75.15896891132492
2.37,157.77655690332196,76.46740060631147
2.38,161.87549329561858,76.82501475646548
2.39,166.28900152174847,76.3460448557498
2.4,172.4803790531566,75.62342434317716
2.41,179.11133455866016,75.18892217150713
2.42,181.87552559034484,74.41217842138137
2.43,180.92782401706967,72.30897748046058
2.44,181.51324962566792,69.00308520261696
2.45,182.46776595614125,66.07501484229404
2.46,182.77854927592378,64.9177960009973
2.47,184.63711251567406,64.81245404597755
2.48,192.45198175292032,64.92904108444348
2.49,196.4639529875534,65.24744375049605
2.5,200.5682285514326,66.45470379442168
2.5100000000000002,204.10348796049914,68.04321034435576
2.52,203.24876795239646,69.1600477962875
2.5300000000000002,200.48356516416985,70.09031829155471
2.54,197.89015753699402,70.96559991665481
2.5500000000000003,195.69707235942445,71.7856018312029
2.56,193.66371819558543,72.80939529117147
2.57,192.08613318379517,73.58788269286393
2.58,190.5138199333058,73.56930157151514
2.59,188.00993153704346,72.83982813629947
2.6,184.2175952271209,71.66044364573018
2.61,180.2237395594955,69.8213171559158
2.62,174.9767027555186,67.08518937456738
2.63,167.54545276641028,63.930658547787466
2.64,160.94229467925098,61.16211857188075
2.65,157.9100743975253,59.90800769598045
2.66,152.32184308133242,60.496013512747545
2.67,145.1765094477625,61.514626902305686
2.68,138.9690535787063,62.945694759210255
2.69,133.76504591876557,65.2443348564845
2.7,129.65697201667126,67.53306375463556
2.71,128.025779118695,68.97977773454468
2.72,128.0852460055274,69.74330469415922
2.73,128.62291746388402,70.10480635883287
2.74,129.09590839485176,70.17846522201025
2.75,129.25805199503336,70.1426681195756
2.7600000000000002,128.70257722524553,70.08001853970302
2.77,127.4653133177015,69.78002474177784
2.7800000000000002,125.78916612917442,68.89460057810258
2.79,124.18634646618766,67.19523956275363
2.8000000000000003,123.05279790778287,64.854204595468
2.81,121.72188289517476,62.30880576095279
2.82,115.71643714853717,59.328341714316714
2.83,--undefined--,55.623646234514915
2.84,--undefined--,52.87673886670166
2.85,--undefined--,55.18574102535409
2.86,--undefined--,59.517863708495504
2.87,--undefined--,61.86708859610742
2.88,--undefined--,61.93239411933508
2.89,--undefined--,60.02889945211586
2.9,--undefined--,56.54080473202206
2.91,--undefined--,51.73710500889339
2.92,--undefined--,47.077295944419866
2.93,--undefined--,48.49209231673513
2.94,--undefined--,54.17019117763097
2.95,144.30836398219878,58.096852186572725
2.96,137.27009119507105,60.64071940985982
2.97,128.7140144385504,62.14289078145057
2.98,124.57228831098524,62.54805711337092
2.99,120.5219578092766,61.99026902743033
3,116.5093296958519,60.902233579844484
3.0100000000000002,114.55344843426984,60.032305260778905
3.02,113.85309510568536,59.77063956767447
3.0300000000000002,113.63005303231736,59.706696989721415
3.04,113.53485124817422,59.249769493476656
3.0500000000000003,--undefined--,57.983016076694355
3.06,--undefined--,55.7561612586057
3.0700000000000003,--undefined--,52.394556447878124
3.08,--undefined--,47.93238574432816
3.09,--undefined--,43.902920415957965
3.1,--undefined--,42.25489824977008
3.11,--undefined--,41.91887332735825
3.12,--undefined--,41.84159577656508
3.13,--undefined--,42.492143716860205
3.14,--undefined--,45.208254790194374
3.15,--undefined--,53.752131701114294
3.16,--undefined--,62.9807698983165
3.17,--undefined--,68.84572419037761
3.18,152.16535554843693,72.36168520211723
3.19,152.2213712152736,74.54630139789072
3.2,153.48637098043565,75.88192611971292
3.21,156.056785394498,76.57825253408205
3.22,162.24610532995473,76.98192239584525
3.23,167.9095727907881,77.21268861209505
3.24,173.9293750179075,77.14820890748628
3.25,180.26379923397093,76.97580691190373
3.2600000000000002,188.84643428365925,77.06201017840839
3.27,195.89760968443187,77.26800874732169
3.2800000000000002,205.67684366576816,77.17376806183829
3.29,215.30827625222875,76.79491806838917
3.3000000000000003,222.39309235696567,76.31272049817099
3.31,233.4873273845432,75.8197937926405
3.3200000000000003,246.68307771275218,75.43882847607604
3.33,260.07139013053603,75.14804910129665
3.34,270.12397582536113,74.74893107930508
3.35,276.87940366240747,74.13172027694408
3.36,281.33145035270434,73.28857697931979
3.37,282.63605006257745,72.3449566598589
3.38,280.4643913629871,71.67382007169933
3.39,277.19796142939174,71.41567887255735
3.4,273.97879025804383,71.12406620466004
3.41,267.2797868448448,70.14468117729393
3.42,254.78791372793535,67.85395014481814
3.43,--undefined--,64.45896182628398
3.44,--undefined--,62.274120752013175
3.45,--undefined--,62.47325404348702
3.46,--undefined--,63.046259740707036
3.47,--undefined--,64.01849951711786
3.48,--undefined--,65.21887641269885
3.49,--undefined--,65.88657543486575
3.5,--undefined--,65.95610298469059
3.5100000000000002,--undefined--,66.0546297588766
3.52,--undefined--,66.49408704398479
3.5300000000000002,--undefined--,67.01364845076064
3.54,--undefined--,67.22016281613412
3.5500000000000003,--undefined--,66.92529072929207
3.56,--undefined--,66.47372202138998
3.5700000000000003,--undefined--,66.02911758954336
3.58,--undefined--,65.37022640098239
3.59,--undefined--,65.03203944609788
3.6,--undefined--,65.20135177103836
3.61,--undefined--,65.23509943013212
3.62,--undefined--,64.91656236775773
3.63,--undefined--,64.123533938498
3.64,--undefined--,62.87164896818745
3.65,--undefined--,61.34180506045727
3.66,--undefined--,59.368893892459845
3.67,--undefined--,56.643228612248805
3.68,--undefined--,53.54104708116341
3.69,--undefined--,51.27380898883872
3.7,--undefined--,50.15226936105793
3.71,--undefined--,49.814801685841715
3.72,--undefined--,50.126274655523694
3.73,--undefined--,50.92419839620669
3.74,--undefined--,52.28855361285737
3.75,--undefined--,53.28499891451586
3.7600000000000002,--undefined--,53.01466105710784
3.77,--undefined--,51.917999080190285
3.7800000000000002,--undefined--,51.22854428222503
3.79,--undefined--,51.27231277536123
3.8000000000000003,--undefined--,51.2207385112009
3.81,--undefined--,50.89105763106525
3.8200000000000003,--undefined--,50.92834371672274
3.83,--undefined--,50.996677880832685
3.84,--undefined--,50.70961511170484
3.85,--undefined--,50.708131467798395
3.86,--undefined--,51.26083465177781
3.87,--undefined--,51.40537318294083
3.88,--undefined--,51.00671904226379
3.89,--undefined--,50.4877808400017
3.9,--undefined--,49.984317777889295
3.91,--undefined--,49.988989361578106
3.92,--undefined--,50.41616879678924
3.93,--undefined--,50.94681465962071
3.94,--undefined--,51.68125132729105
3.95,--undefined--,52.36697157637633
3.96,--undefined--,52.75064734532345
3.97,--undefined--,52.76887389356792
3.98,--undefined--,52.110988911658026
3.99,--undefined--,50.55438740600669
4,--undefined--,48.96557629403878
4.01,--undefined--,49.727581097190814
4.0200000000000005,--undefined--,53.36204346806086
4.03,344.5659173410742,56.37363331720623
4.04,352.4941823582976,57.47883977829464
4.05,359.0876802762396,57.29484338046488
4.0600000000000005,360.22294149203196,57.21620918641795
4.07,359.98165731571146,58.11398352366294
4.08,357.3190222981995,59.39743744114368
4.09,--undefined--,60.18062275620366
4.1,--undefined--,60.13265551192162
4.11,--undefined--,60.24868276509031
4.12,--undefined--,61.73850504362278
4.13,--undefined--,63.39224755523169
4.14,--undefined--,63.66639192897153
4.15,144.65008001844492,63.659998370273804
4.16,148.51152320171715,66.77182688021304
4.17,152.89207056030034,70.90775993624419
4.18,156.34426803694842,73.76084753734749
4.19,158.84804471558448,75.57547163430209
4.2,160.46416927360065,76.62253292947646
4.21,161.2951381076126,76.98139196594978
4.22,162.03361018296056,76.8778687219094
4.23,163.46010165633172,76.66123380623924
4.24,165.32800298000552,76.64131089637417
4.25,166.70123029287797,76.8358034050941
4.26,168.24257371226156,77.01062382242544
4.2700000000000005,171.09299229197356,77.37007677036273
4.28,173.47260420405274,77.99986435577227
4.29,175.45702200179818,78.33802631790142
4.3,177.05391454285245,78.28370466625188
4.3100000000000005,177.81241073225135,78.1590198809254
4.32,178.1160257828204,78.03778199655473
4.33,178.1624162106377,77.92404933385978
4.34,177.18943438077662,77.92587862942602
4.3500000000000005,175.79202976166908,78.06132179130117
4.36,175.10185111651188,77.90879261000208
4.37,174.63766956403657,76.95857916558941
4.38,171.41221388669803,74.96474060094353
4.39,169.64845830631404,72.06333253238509
4.4,172.9162838358387,68.60215796908486
4.41,176.0688538104408,64.95980589510995
4.42,176.386861693091,62.24128594783218
4.43,175.7987633784217,60.74364243452361
4.44,175.6109151749225,59.34289075856945
4.45,176.68212818767023,58.0841838555382
4.46,--undefined--,58.39082227585676
4.47,--undefined--,60.31934324265888
4.48,--undefined--,61.45891719103285
4.49,--undefined--,61.691657882997625
4.5,--undefined--,62.099428436568026
4.51,--undefined--,62.1390785234774
4.5200000000000005,--undefined--,61.53804027859019
4.53,190.12219552740905,63.56532431624475
4.54,191.70668967065677,68.79148418002376
4.55,192.21413568406422,72.7209124220783
4.5600000000000005,190.29232999694852,74.98314080485213
4.57,186.07158774898514,76.23784050521023
4.58,182.61871780229959,76.97338356661189
4.59,180.98116882835504,77.31416667827725
4.6000000000000005,179.33982920615728,77.3571695129929
4.61,177.47169777190982,77.33354567748476
4.62,176.47391270669223,77.22331211262727
4.63,176.31541418549827,76.75232917652669
4.64,176.2651638589082,75.93304873367013
4.65,175.58826286068086,75.24812712897688
4.66,174.2334257089033,75.0772298722547
4.67,172.7790769960079,75.21680927406078
4.68,171.99216101927337,75.17749455689759
4.69,171.83844916307334,74.66109558498187
