time,pitch,intensity
0.01,--undefined--,--undefined--
0.02,--undefined--,--undefined--
0.03,--undefined--,--undefined--
0.04,--undefined--,--undefined--
0.05,--undefined--,50.24871500743738
0.06,--undefined--,49.20645836372774
0.07,--undefined--,48.660575866566255
0.08,--undefined--,51.05217812158744
0.09,--undefined--,58.88914834770234
0.1,--undefined--,65.43116379893682
0.11,315.45463754852585,70.07102543485232
0.12,339.72253858943236,74.01767202757215
0.13,346.86255607635115,76.94070564192383
0.14,352.6566784176241,78.54878804657126
0.15,361.1421487792414,79.5414143764065
0.16,370.9889859805812,80.50719836665687
0.17,380.48309703200016,81.0791325527376
0.18,390.35023283157926,80.75818883325007
0.19,401.5750275342652,79.44596169133692
0.2,412.61011048989565,77.69690130336699
0.21,419.2294940476833,76.16703780020217
0.22,421.6830884341455,74.29113215812943
0.23,426.2949923115015,72.24692236851334
0.24,438.5858657440954,72.61505453715458
0.25,451.66075205250047,74.57039859349513
0.26,459.3493943421569,76.25686003660366
0.27,465.2266425676641,77.40923884924837
0.28,469.7925525038469,78.09921831871894
0.29,473.1292719474915,78.45850205456772
0.3,474.8993906464317,78.5621658469135
0.31,474.6049020153392,78.36324484190108
0.32,473.1560914282698,77.77751766223761
0.33,471.54292778284974,76.82287742957797
0.34,469.5511292578581,75.34330570053308
0.35000000000000003,466.2729100784488,72.84159920761468
0.36,463.28346297246384,68.998623625432
0.37,460.05962766247274,65.08651991497393
0.38,446.84045811994895,65.25312309966674
0.39,435.97493583138817,68.81781000853788
0.4,441.1852551729895,72.6541805868481
0.41000000000000003,447.58404493960285,75.23911317146968
0.42,454.6364766931549,76.26434338609725
0.43,458.58200845568024,75.90524218342193
0.44,457.07992370399836,74.49374396371319
0.45,446.9275499041201,72.37333219901693
0.46,437.0347955060228,70.21230527414585
0.47000000000000003,--undefined--,69.9307668920654
0.48,--undefined--,71.4401804132159
0.49,--undefined--,73.25699962477282
0.5,--undefined--,74.49014824211709
0.51,--undefined--,74.52740447916374
0.52,--undefined--,73.78103619417114
0.53,--undefined--,72.84183059419752
0.54,--undefined--,71.43049827251866
0.55,--undefined--,69.09736811506339
0.56,--undefined--,66.29981482255016
0.5700000000000001,--undefined--,67.26500312980076
0.58,397.8906505253088,70.83183746412864
0.59,394.37106874127704,73.447884939402
0.6,388.05919659521675,75.0469944753137
0.61,378.7671157752757,76.2642542003378
0.62,369.53326082554986,77.1284201204284
0.63,362.47587571989374,77.41494373296294
0.64,357.88974209764604,77.2129014548743
0.65,354.47353553174037,76.81674662632395
0.66,351.33057574992193,76.51810046274521
0.67,349.15403646167135,76.33076520882973
0.68,348.03133290696763,76.07806133154197
0.6900000000000001,346.94089232205056,75.83788369089031
0.7000000000000001,345.43583584665123,75.74422873962536
0.71,344.25789429524616,75.60664375989963
0.72,344.6596893555417,75.09993182120999
0.73,347.210773102505,73.90749217398421
0.74,350.79454345025493,71.81083663865076
0.75,350.7840569069471,68.9240319055659
0.76,323.6628680849628,65.66970909456433
0.77,270.17561893485953,62.355693707963184
0.78,242.30926102091445,58.716650711355584
0.79,--undefined--,55.21063957823003
0.8,--undefined--,54.8021855015424
0.81,--undefined--,58.92776395782257
0.8200000000000001,--undefined--,66.01055637170052
0.8300000000000001,271.12625330768515,71.74826293732285
0.84,274.00500101997903,75.55005897799391
0.85,281.1427034261214,77.87442245941223
0.86,286.9512606252977,79.07059098598376
0.87,290.54720921133327,79.38592754672115
0.88,291.72220021078334,78.980807602184
0.89,290.6871220970356,77.91023750737908
0.9,286.3913936783242,76.36665307384952
0.91,277.2971469117355,75.04471864537831
0.92,264.91907348958443,74.16864856170089
0.93,257.4894686385407,73.09007562979829
0.9400000000000001,--undefined--,72.8172706097787
0.9500000000000001,--undefined--,73.92657274406791
0.96,--undefined--,74.89778851921864
0.97,--undefined--,75.34813808871392
0.98,--undefined--,75.52565085468547
0.99,--undefined--,74.95873845094334
1,--undefined--,72.66903649400987
1.01,--undefined--,67.97183222101967
1.02,--undefined--,60.998676498627155
1.03,--undefined--,57.374573372383836
1.04,--undefined--,63.38726613861384
1.05,--undefined--,69.656496439691
1.06,--undefined--,74.62191641938514
1.07,277.74899607795305,77.87707421170344
1.08,264.6788345723092,79.36423236361215
1.09,244.2616592633543,79.76653619704103
1.1,238.3321600306999,79.85056684769845
1.11,233.75604952578854,79.76220496182025
1.12,231.71483204561648,79.4955501344678
1.1300000000000001,234.71388406112274,79.12885675070008
1.1400000000000001,246.57309726589705,78.74877646004109
1.1500000000000001,260.5530281963895,78.67599773916578
1.16,267.124186853526,78.82231448811501
1.17,272.65558499165553,78.99526036207128
1.18,277.29458571458576,79.06932009683095
1.19,282.18958917440926,78.52925525486313
1.2,288.28065996342724,76.705594892336
1.21,303.3405789172423,73.73489846836455
1.22,315.31639845716666,71.14687955353494
1.23,304.8802863935617,69.06641709062653
1.24,287.4559074844131,66.01209227386711
1.25,276.7999745647797,61.396306448017505
1.26,--undefined--,58.81527709994514
1.27,--undefined--,60.85755810983973
1.28,--undefined--,63.26611673818563
1.29,--undefined--,64.96941665881258
1.3,--undefined--,65.64829748498148
1.31,--undefined--,65.53256738845239
1.32,--undefined--,65.06036186736105
1.33,--undefined--,64.36748376795761
1.34,--undefined--,63.82257942489632
1.35,--undefined--,63.65741907152271
1.36,--undefined--,63.133620818864095
1.37,--undefined--,61.98558916690087
1.3800000000000001,--undefined--,60.521514996653856
1.3900000000000001,--undefined--,58.88070567036367
1.4000000000000001,--undefined--,57.32104645172706
1.41,--undefined--,55.725423694432685
1.42,--undefined--,53.538889873656196
1.43,--undefined--,50.450323603276374
1.44,--undefined--,47.267720568113276
1.45,--undefined--,45.80232868826354
1.46,--undefined--,46.859169757858275
1.47,--undefined--,48.94410703356407
1.48,--undefined--,51.44721946999359
1.49,--undefined--,59.1893299452104
1.5,--undefined--,67.67568992974563
1.51,268.4211061845348,73.66898243119444
1.52,279.1941079584175,77.1519904801547
1.53,293.4205626968917,78.61645896945072
1.54,313.02668556793907,78.82316106562176
1.55,325.4467093661423,78.3498097391241
1.56,335.837806485479,77.33778695778811
1.57,344.22308313309026,76.13786803258934
1.58,342.45360608706284,74.75770674689153
1.59,311.58650047525816,73.39644160742927
1.6,278.0874648518425,73.35812346133557
1.61,--undefined--,74.29833324367583
1.62,--undefined--,74.78879053089953
1.6300000000000001,--undefined--,74.85979216612928
1.6400000000000001,--undefined--,74.76199923707318
1.6500000000000001,--undefined--,73.47238761357596
1.6600000000000001,--undefined--,70.35837205432941
1.67,--undefined--,66.20402405621776
1.68,--undefined--,62.2404774897325
1.69,--undefined--,57.5414330151057
1.7,--undefined--,57.83772016211271
1.71,--undefined--,65.41455359806662
1.72,--undefined--,70.74576267390879
1.73,--undefined--,73.81728372370031
1.74,--undefined--,75.63143332123114
1.75,--undefined--,76.6389656811781
1.76,--undefined--,76.97098316594031
1.77,278.31601189556983,77.15401095429938
1.78,278.3408211675258,77.38844164135684
1.79,278.59080045808815,77.37294593443471
1.8,278.6377947722693,76.86921233752724
1.81,275.5514568211191,75.73243979478241
1.82,263.8362424677071,73.94276730589283
1.83,253.33529648135982,72.25647776921086
1.84,--undefined--,72.52616974887192
1.85,--undefined--,74.0517545845716
1.86,--undefined--,75.1321768671561
1.87,--undefined--,75.6250061202024
1.8800000000000001,--undefined--,75.90431672623487
1.8900000000000001,--undefined--,75.65675062682156
1.9000000000000001,--undefined--,74.76256876832044
1.9100000000000001,--undefined--,73.9585574496641
1.92,--undefined--,73.34482299465672
1.93,--undefined--,72.35837235764905
1.94,--undefined--,71.14531677088804
1.95,--undefined--,72.21600151790798
1.96,292.5221789090307,75.1807639281344
1.97,291.52464959596716,77.10897138380784
1.98,290.59898798170593,77.75552141059073
1.99,291.5187093065763,77.86771632848272
2,295.8083379775021,77.97087595707976
2.0100000000000002,302.45519932123614,78.27896949216854
2.02,309.85542189797417,78.85778294170389
2.0300000000000002,316.3274842857348,79.22013784510546
2.04,321.14902156814986,79.022242402904
2.05,324.5065426669815,78.58992768046473
2.06,325.1370813743564,78.2809054542248
2.07,322.81504337057186,78.07863803225041
2.08,318.8546012002651,77.85887349731858
2.09,314.4938076369465,77.4809670006099
2.1,311.0500745635206,76.9882596988229
2.11,309.46722833135857,76.46186819900906
2.12,309.09598836783476,75.75487820101691
2.13,309.3445294288936,74.67409296558881
2.14,309.01254691020466,73.10564654827677
2.15,302.02424283081393,70.89991687763765
2.16,283.9746699749161,67.59940475834893
2.17,270.9851097520436,62.47879493319161
2.18,--undefined--,56.04414743291756
2.19,--undefined--,52.784555417820584
2.2,--undefined--,52.62059228772054
2.21,--undefined--,53.70611196546527
2.22,--undefined--,58.37608351963792
2.23,--undefined--,65.9219238389065
2.24,279.25221233153394,72.1013907113802
2.25,284.6369325692519,75.98274193953859
2.2600000000000002,291.01770814783464,77.87208977535559
2.27,294.2569725257181,78.31647595086093
2.2800000000000002,294.9261639825238,77.9580156008769
2.29,293.2272714788376,77.1958491011378
2.3000000000000003,289.6198078883821,76.0227089326891
2.31,281.7871650216938,74.51987584677336
2.32,271.02389126659006,73.14673440958097
2.33,265.93002105210843,72.18615871166507
2.34,265.6830900371103,72.32538095750846
2.35,--undefined--,73.42445727667685
2.36,--undefined--,74.43296669282717
2.37,--undefined--,75.29292109636141
2.38,--undefined--,75.92892607040112
2.39,--undefined--,75.93052031166651
2.4,--undefined--,74.94118009824197
2.41,--undefined--,72.46342328295566
2.42,--undefined--,67.91797598731128
2.43,--undefined--,61.01746223278207
2.44,--undefined--,58.553229355514695
2.45,--undefined--,64.64468906250768
2.46,--undefined--,70.11705281704418
2.47,--undefined--,74.63719543405985
2.48,275.84893525759446,77.64102155198893
2.49,272.14989471271826,78.88115662508908
2.5,268.4589449289105,79.08317398438962
2.5100000000000002,267.13580102041215,79.25422836627853
2.52,267.63359618320027,79.60911290166467
2.5300000000000002,268.07024705815667,79.89947094610572
2.54,267.85487696824794,80.0712180486843
2.5500000000000003,266.6604224895081,80.05138980583455
2.56,264.82548514598454,79.70588807279182
2.57,263.3827794538451,79.14118590935219
2.58,263.3280019010637,78.5616303183976
2.59,265.7125679709415,77.81288452080179
2.6,268.4410658921542,76.64846969590896
2.61,267.4644758582247,74.86771290122152
2.62,251.82743032544062,72.0040850693344
2.63,227.81522351747907,67.7217670908623
2.64,219.4848005332148,62.201915023579325
2.65,--undefined--,57.17235559919268
2.66,--undefined--,57.063048333713105
2.67,--undefined--,59.579817859789294
2.68,--undefined--,61.99470587922698
2.69,--undefined--,63.22779518943539
2.7,--undefined--,63.100898106243385
2.71,--undefined--,62.34615108150564
2.72,--undefined--,61.76649339282107
2.73,--undefined--,61.031953455590255
2.74,--undefined--,59.925081325590845
2.75,--undefined--,59.048928034032734
2.7600000000000002,--undefined--,58.607355211921124
2.77,--undefined--,58.238674455239064
2.7800000000000002,--undefined--,58.27722971755787
2.79,--undefined--,58.818001311674536
2.8000000000000003,--undefined--,58.81169658923655
2.81,--undefined--,57.348968660723465
2.82,--undefined--,53.94161158981176
2.83,--undefined--,48.62285956689466
2.84,--undefined--,44.01379683376013
2.85,--undefined--,42.73373301621353
2.86,--undefined--,42.0785456460326
2.87,--undefined--,41.43051156000693
2.88,--undefined--,41.52215656156766
2.89,--undefined--,42.8762092168406
2.9,--undefined--,55.653107482453684
2.91,--undefined--,67.11619449388348
2.92,--undefined--,73.89423018520245
2.93,--undefined--,77.12110399080375
2.94,--undefined--,78.06976345044275
2.95,290.3581172709555,78.26880255436478
2.96,287.7717343138132,78.75269990846996
2.97,286.5399014536284,79.53468519093788
2.98,--undefined--,79.83898203827484
2.99,--undefined--,78.68720424169526
3,--undefined--,75.45905968029095
3.0100000000000002,--undefined--,70.08694040294274
3.02,--undefined--,63.943513965296916
3.0300000000000002,--undefined--,59.061612087761596
3.04,--undefined--,55.03052324193927
3.0500000000000003,--undefined--,52.639734022955494
3.06,--undefined--,51.95646887781509
3.0700000000000003,--undefined--,57.790135672781645
3.08,--undefined--,66.50120566798192
3.09,--undefined--,72.63537959957009
3.1,--undefined--,76.00693841992647
3.11,242.74843354619492,77.20094661815628
3.12,245.4966870329118,76.93453545967445
3.13,248.54216109831717,75.50527847710467
3.14,238.51294269881984,72.5078050831477
3.15,225.75448607595362,67.68125904380713
3.16,228.64851994315964,61.99599978531745
3.17,--undefined--,60.224265991650896
3.18,--undefined--,62.35739662641204
3.19,--undefined--,63.917847246268025
3.2,--undefined--,64.63385152926993
3.21,--undefined--,67.8413563208246
3.22,260.99367536791226,73.74016110912034
3.23,258.41481598151074,77.92457150342658
3.24,260.8609795514529,79.8197405827048
3.25,262.35651315739534,80.24963069918802
3.2600000000000002,260.5325305140861,80.103445895888
3.27,256.13250726345365,79.73057349794756
3.2800000000000002,250.03714980042867,79.15214442459143
3.29,241.00485542863285,78.5577866061365
3.3000000000000003,231.23557604600455,78.68953661840516
3.31,227.54566719087114,79.54794769824201
3.3200000000000003,226.42621504370572,80.17537001608382
3.33,225.00730318696944,80.25380715286106
3.34,223.66612763436555,80.09355164368284
3.35,223.47026305849116,79.99832672572795
3.36,224.23325438865535,79.96508406880123
3.37,224.88612878022332,79.8597254932976
3.38,225.36456567937162,79.39471848437422
3.39,221.81025116206823,78.32918976936897
3.4,217.7071188209122,77.40834705621111
3.41,222.01389988839844,77.77148905274832
3.42,227.1537349791057,78.76266994632746
3.43,229.26247085913656,79.4328498072795
3.44,230.83951530610747,79.62380505419498
3.45,231.14740283755532,79.41982045843525
3.46,229.70724563581794,78.7410207378523
3.47,224.15202881852088,77.31170242514232
3.48,214.26109302031006,75.03424473583998
3.49,208.4216847419724,73.0926074425684
3.5,--undefined--,73.07136598882863
3.5100000000000002,--undefined--,73.66928892559459
3.52,--undefined--,73.79873840195297
3.5300000000000002,--undefined--,73.27628511805733
3.54,--undefined--,73.21820997874193
3.5500000000000003,--undefined--,74.36693910389856
3.56,--undefined--,74.26570359886726
3.5700000000000003,--undefined--,71.93537903635225
3.58,--undefined--,70.63776404249597
3.59,--undefined--,71.46935015105292
3.6,--undefined--,73.0275614356096
3.61,240.85605665330743,75.67795133434126
3.62,234.22244963004024,77.32424324846804
3.63,227.9064244154396,77.66131270886928
3.64,226.76657026895788,77.55743205028354
3.65,226.69498259408473,77.34865244031886
3.66,227.7061593595231,77.06082783977088
3.67,229.92597254529147,76.87893882151077
3.68,232.94387000244257,76.72638893870102
3.69,237.16668816987033,76.47739338131585
3.7,243.6202690826279,76.26113294452262
3.71,252.0872019908521,76.19492014416063
3.72,261.5386523337228,76.53135525147629
3.73,270.8177029802787,77.08168353391508
3.74,280.9154988677734,76.90765114185244
3.75,297.41393834804995,75.63997097528927
3.7600000000000002,319.28342161858393,74.03725184018896
3.77,334.0087452483913,72.91782286575258
3.7800000000000002,337.8087850054352,71.88486318030955
3.79,333.9427684107126,70.35723336254401
3.8000000000000003,322.13406766555363,68.04093262165377
3.81,305.2452288633085,64.7814623918447
3.8200000000000003,294.135107480898,60.3508895500423
3.83,--undefined--,56.09277402106781
3.84,--undefined--,56.554464253373794
3.85,--undefined--,59.38364525717262
3.86,--undefined--,62.53035993559907
3.87,--undefined--,65.00018459207684
3.88,--undefined--,66.05778483454489
3.89,--undefined--,66.14669228247257
3.9,--undefined--,65.97572942741984
3.91,--undefined--,65.66679400320288
3.92,--undefined--,65.12776317735153
3.93,--undefined--,64.34141714150654
3.94,--undefined--,63.53059190972862
3.95,--undefined--,62.92273325077202
3.96,--undefined--,62.63331763738242
3.97,--undefined--,62.56547949778864
3.98,--undefined--,62.5502212831427
3.99,--undefined--,62.35281791659888
4,--undefined--,61.5302217896009
4.01,--undefined--,59.99746527583784
4.0200000000000005,--undefined--,57.552861399811725
4.03,--undefined--,53.89841054657525
4.04,--undefined--,50.81980439095581
4.05,--undefined--,49.550090311597394
4.0600000000000005,--undefined--,47.385589148100905
4.07,--undefined--,46.60697671877192
4.08,--undefined--,54.99245559472246
4.09,--undefined--,65.07431983929712
4.1,--undefined--,72.93942858576496
4.11,--undefined--,77.8404555299055
4.12,--undefined--,79.91827752747551
4.13,--undefined--,79.74842815209472
4.14,257.6100252971943,78.694354182647
4.15,258.982579417353,78.20574315862716
4.16,--undefined--,77.8429977456311
4.17,--undefined--,76.69161990525376
4.18,--undefined--,74.43619890137792
4.19,--undefined--,70.90915630934106
4.2,--undefined--,65.95869431758898
4.21,--undefined--,60.32412509201598
4.22,--undefined--,57.15705319542303
4.23,--undefined--,55.727038507326036
4.24,--undefined--,55.685102653905254
4.25,--undefined--,60.271415226706466
4.26,--undefined--,66.05218168455545
4.2700000000000005,--undefined--,70.88513388173634
4.28,--undefined--,74.46343377179767
4.29,--undefined--,76.56032442353357
4.3,--undefined--,77.39054939976101
4.3100000000000005,--undefined--,77.86901842518319
4.32,--undefined--,78.36386589536826
4.33,--undefined--,78.18575387552981
4.34,--undefined--,76.89428835175538
4.3500000000000005,--undefined--,74.64821145931119
4.36,--undefined--,71.61953239150186
4.37,--undefined--,70.31012704567577
4.38,275.3739368877478,73.7692332058349
4.39,290.61985144789884,77.15937643077875
4.4,296.31609570498534,79.16147607622719
4.41,299.3386716869235,80.04246234597494
4.42,298.6950102646844,80.29849616111055
4.43,294.18941157588176,80.29379470911385
4.44,289.4086565003607,79.7284072576352
4.45,287.4174646345844,78.12102388744006
4.46,--undefined--,75.49350858400452
4.47,--undefined--,72.1772481035971
4.48,--undefined--,67.9880474790473
4.49,--undefined--,62.48533423833238
4.5,--undefined--,57.07428624558379
4.51,--undefined--,53.83933525220685
4.5200000000000005,--undefined--,51.97770205238627
4.53,--undefined--,52.0363696762978
4.54,--undefined--,55.30739278845001
4.55,--undefined--,58.425174079217385
4.5600000000000005,--undefined--,59.328368235629526
4.57,--undefined--,57.4397150017591
4.58,--undefined--,52.52463569446073
4.59,--undefined--,50.355131505056896
4.6000000000000005,--undefined--,60.2620366623939
4.61,--undefined--,68.93004094719318
4.62,--undefined--,74.21140936274269
4.63,--undefined--,76.61419365488524
4.64,--undefined--,77.65772049628832
4.65,--undefined--,79.34677214377743
4.66,302.6191771136513,81.12990147286203
4.67,304.93556488073443,82.03017818921697
4.68,304.3664377876659,81.88707245094592
4.69,302.5470187558346,80.68255431939491
4.7,302.04310239368544,78.76776284752594
4.71,300.8178219709483,76.88452997726151
4.72,286.9412197613656,75.42140653846529
4.73,271.82622549839783,74.37970925888395
4.74,--undefined--,74.46543919219768
4.75,--undefined--,75.6163531257303
4.76,--undefined--,76.76140456725852
4.7700000000000005,--undefined--,77.70339936363264
4.78,--undefined--,78.17603540554887
