time,pitch,intensity
0.01,--undefined--,--undefined--
0.02,--undefined--,--undefined--
0.03,--undefined--,--undefined--
0.04,--undefined--,--undefined--
0.05,--undefined--,57.71854228153652
0.06,--undefined--,58.28111613996011
0.07,--undefined--,58.89504303785825
0.08,--undefined--,59.449465255220225
0.09,--undefined--,59.6682713406637
0.1,--undefined--,58.96661972489795
0.11,--undefined--,57.211180619325184
0.12,--undefined--,57.298024203102464
0.13,--undefined--,60.27524443273585
0.14,196.15029562242646,62.99362829248384
0.15,182.73515171953392,64.89076699097635
0.16,172.4098061224428,66.75575179234524
0.17,168.24346020098886,68.80168664346138
0.18,164.20825768777473,70.44705353276291
0.19,159.82491932673634,71.5316259305646
0.2,157.9874798423404,72.46254043955118
0.21,158.35694858862487,73.59585997396337
0.22,160.62607748976052,74.71903017838439
0.23,165.51721746656904,75.58928956216778
0.24,171.39446672583352,75.9974724294485
0.25,177.04243344704548,75.85412938974615
0.26,183.10265038645898,75.36948464853332
0.27,188.1752199551684,74.93717048932281
0.28,191.10265729571302,74.6392874631054
0.29,192.57738768696942,74.25219442750074
0.3,194.64904100951188,73.86370092793129
0.31,198.0390193799554,73.85697924751213
0.32,200.62233433275094,74.26601246929288
0.33,201.89649248706536,74.78133028329394
0.34,202.50496191179607,75.11627113635184
0.35000000000000003,202.60987962879582,75.12762631474618
0.36,203.04955988905124,74.94199727153736
0.37,203.53340076188348,74.72449967104211
0.38,203.72317671606612,74.43239422498287
0.39,204.2284610680129,74.08829922691942
0.4,204.97929195890592,73.85069224827576
0.41000000000000003,205.33930967289382,73.47483691433286
0.42,204.80460366252797,72.2970784667538
0.43,202.49102915192663,69.96425803253185
0.44,197.1671797289251,66.99739455113792
0.45,192.56674764531482,64.93167496582136
0.46,190.63677079496279,64.13787265816502
0.47000000000000003,189.25045358045452,63.72718659229952
0.48,186.89147417658745,63.366653051632966
0.49,183.2206446113203,62.84525841082214
0.5,179.3760565045081,62.09747865369649
0.51,175.5763936530605,61.44748673198223
0.52,172.1548790828486,61.0662881979461
0.53,169.5351312577476,60.89689983420553
0.54,167.88790503763866,60.86427362545213
0.55,166.0489670475709,60.78908791402427
0.56,163.7718125545067,60.474483155704824
0.5700000000000001,161.1139973078614,59.85229443363499
0.58,158.2289595552328,59.20464131696971
0.59,156.48388921660438,58.840569382886926
0.6,155.24595931389314,58.863690765049746
0.61,153.1005111434142,59.08202762516652
0.62,151.02365867701735,59.18052227119181
0.63,150.33731713618445,59.17733483392161
0.64,150.71767189684564,59.39812583231795
0.65,153.7788188193813,60.31135854035521
0.66,164.49510779199838,63.09760151864996
0.67,193.00688411130054,68.7311802837264
0.68,222.12878845112354,73.69501775062273
0.6900000000000001,231.78486805393663,76.37947449760952
0.7000000000000001,236.07813427424222,77.23246797371387
0.71,246.3409339930782,77.51259199897062
0.72,257.5219209386393,78.13761759488968
0.73,264.89495930110996,78.7088531857862
0.74,270.6053077788616,78.85173302450728
0.75,273.94708696372464,78.80166675075436
0.76,274.5215434900786,78.75891309841605
0.77,273.4857448898738,78.69783378868617
0.78,272.4390417507014,78.62800813071699
0.79,272.9628833862446,78.6223448058161
0.8,275.83069635914944,78.61204884468938
0.81,279.62831269773886,78.52077772059495
0.8200000000000001,281.84501252726795,78.59001616225525
0.8300000000000001,281.5082972743054,78.91945093553805
0.84,279.038138584721,79.11078313036148
0.85,274.8458361521701,79.01727911208764
0.86,269.739374229407,78.76755890359198
0.87,264.26052858614145,78.47095293280448
0.88,258.67856476151945,78.20625955924835
0.89,253.0202236833797,77.75398341594331
0.9,248.23383071386328,76.73866632409481
0.91,243.7616522455119,74.53825683278431
0.92,241.14046229038513,70.57471586227402
0.93,--undefined--,65.18057429311259
0.9400000000000001,--undefined--,60.0197819305956
0.9500000000000001,--undefined--,56.06427074962404
0.96,--undefined--,55.850374592037454
0.97,--undefined--,59.4717073894936
0.98,--undefined--,62.309222932121806
0.99,--undefined--,63.841518321076244
1,--undefined--,64.986720218528
1.01,--undefined--,65.70415511736387
1.02,--undefined--,65.4141058002581
1.03,--undefined--,64.44094853198546
1.04,--undefined--,63.15929021054799
1.05,--undefined--,64.02288518457205
1.06,--undefined--,68.69910338759331
1.07,235.39077659028663,72.50634853486768
1.08,231.65853739691178,74.80252354298104
1.09,226.4086459476746,75.88475191157774
1.1,218.69747790718614,76.24889348938568
1.11,212.9396951984155,76.692353240625
1.12,211.73970722745952,77.06989604234866
1.1300000000000001,211.803996893072,77.01386933766112
1.1400000000000001,211.0179950446584,76.52597029636256
1.1500000000000001,208.63571270704253,75.53536481165696
1.16,206.2745094082552,74.28550052800418
1.17,204.84470378370142,73.56597189149176
1.18,204.31612184573362,73.42171166272706
1.19,206.58364968320726,72.61453904798432
1.2,208.51990812288875,70.51214248439065
1.21,206.7116582317957,67.63150859636251
1.22,205.62157422051305,64.63351435369917
1.23,206.3309677689685,62.1392458433141
1.24,198.8192883975964,60.49981472690283
1.25,190.3062782247747,59.54958312165972
1.26,189.8643718973776,59.42731122940464
1.27,191.02736796599845,60.04503448559195
1.28,193.1641420506296,61.220740710153244
1.29,195.34275678887153,62.38231853628853
1.3,195.90865706388766,62.56551310969654
1.31,191.60904572710783,61.338740642788316
1.32,182.96913146437237,59.35891918064581
1.33,178.27144705491244,57.38558511080643
1.34,--undefined--,55.762253686110064
1.35,--undefined--,58.680894285527366
1.36,--undefined--,65.61216088660027
1.37,214.16280479224835,70.67201248582454
1.3800000000000001,214.24438748578225,73.63087468429879
1.3900000000000001,213.7737966335173,75.28999246064912
1.4000000000000001,213.2019782789393,76.1668755547544
1.41,212.5940899694226,76.36910962870617
1.42,211.54332120169497,76.08208329716943
1.43,210.0276652600787,75.63659866107928
1.44,208.25591390569193,75.28988493371779
1.45,206.42998149272043,75.1514841105574
1.46,204.54275806001917,75.06676266081041
1.47,203.70254913171192,74.41860611591675
1.48,204.5541271261178,72.39145644459094
1.49,203.23252816728467,68.62836420399954
1.5,203.23734728286405,64.73404557276415
1.51,204.75634991648408,63.520366579919525
1.52,203.67894556653394,64.16391635331
1.53,203.79178749819732,65.66937945415823
1.54,205.68694209055084,67.0986992591148
1.55,208.970625280991,68.53134873207796
1.56,211.87081686245938,70.05584658916648
1.57,212.4672706321388,71.6870768780066
1.58,212.17309743822506,73.35860568383657
1.59,212.83771341429892,74.66190070378019
1.6,214.41134464112304,75.32066264799947
1.61,216.29179667131274,75.31051287858989
1.62,218.22809376814845,74.78400367481133
1.6300000000000001,220.09931491028138,74.05441055760912
1.6400000000000001,221.6576374916618,73.3651973242924
1.6500000000000001,222.41595616944014,72.80674826705427
1.6600000000000001,222.74398327405632,72.37769890422177
1.67,223.54502999407993,72.0102234180347
1.68,224.80370643322294,71.93571807112573
1.69,225.79392660751637,72.34855311436402
1.7,226.33895726313236,72.90166916909907
1.71,226.89991155851487,73.14215788550919
1.72,227.63594362752187,72.85062296800452
1.73,228.01722144312967,72.04038528840482
1.74,226.73619682710927,70.63083415814316
1.75,222.029725005422,68.50200847026382
1.76,214.68215627501507,66.30206106482328
1.77,207.03241790530814,64.69116354269774
1.78,203.29570754481884,62.59055194023459
1.79,--undefined--,59.614660781183204
1.8,--undefined--,56.9495786257432
1.81,--undefined--,54.43015342615245
1.82,--undefined--,50.56511210784114
1.83,--undefined--,45.845274098125266
1.84,--undefined--,44.92920437412509
1.85,--undefined--,46.6453138279417
1.86,--undefined--,49.25981932210656
1.87,--undefined--,54.500844442997085
1.8800000000000001,--undefined--,59.999841297192106
1.8900000000000001,--undefined--,64.74034220445242
1.9000000000000001,--undefined--,68.93932205298583
1.9100000000000001,152.49224888690244,72.07256608318936
1.92,157.85984165293712,73.79557878321731
1.93,162.38163153670834,74.52024664625613
1.94,164.26242519985695,75.07975344610007
1.95,164.97187095584266,75.7554453629034
1.96,165.49856249119662,76.27880502703123
1.97,166.2018998093349,76.52378882058645
1.98,167.51876263922094,76.47370711259121
1.99,169.53751136348873,76.22139703694882
2,171.34837885270957,75.98050561406265
2.0100000000000002,172.11992497991108,75.80930610941108
2.02,171.94434622732786,75.76395708026408
2.0300000000000002,171.50355528675607,75.87807682689687
2.04,171.47819163783745,75.71627107167622
2.05,172.55169775125947,74.8075582396717
2.06,175.45938623837768,73.67725557136978
2.07,178.6583039924816,73.22347989932405
2.08,180.87416292374976,72.63686381182389
2.09,182.2414358617487,71.64254994789624
2.1,183.80178177798095,70.60260298938171
2.11,182.87191054930676,69.0081433969739
2.12,176.86150607356745,66.79130424961639
2.13,172.55958450234465,64.50863141073452
2.14,172.26613421619686,62.71798038800267
2.15,172.02566499983732,62.21862038345177
2.16,171.8805020249687,63.00609858402518
2.17,173.48460438939824,64.5473145769871
2.18,176.5991864665916,66.35680735443651
2.19,179.69171715988128,67.89242086002706
2.2,182.06178528051873,68.76903782717231
2.21,183.38070588004757,69.0692655001431
2.22,184.29294592720825,69.1392599909942
2.23,185.10964959519924,69.23656769578068
2.24,185.42692072596148,69.34588615014646
2.25,185.3762833243349,69.39431162733598
2.2600000000000002,185.17742442964402,69.50008273481659
2.27,185.250884315308,69.70677809308651
2.2800000000000002,185.87239092876763,69.85381337240347
2.29,186.25305272056232,69.95021813490067
2.3000000000000003,185.80691774238687,70.08765485825478
2.31,184.82943958988173,70.19364568315956
2.32,183.8899932955425,70.2133495644997
2.33,183.37487737572718,70.2189942090785
2.34,183.1883343646582,70.23431079451409
2.35,183.6781930834707,70.1369655073557
2.36,184.69954445947428,69.81116257704142
2.37,185.38887592637113,69.35202462260138
2.38,185.07740581397016,69.01200827921485
2.39,183.5076245745354,69.02719743187596
2.4,180.99356656764587,69.51414977577106
2.41,177.9044198481284,70.25126338385772
2.42,174.82896098534385,70.66819998486882
2.43,172.1429992343472,70.50553955088942
2.44,169.6724534376865,70.1456044776867
2.45,167.2916276985778,69.87407874430538
2.46,164.46022712643062,69.48255187194984
2.47,160.57082919130866,68.90658776242083
2.48,156.77599972522466,68.23949613647251
2.49,153.9009749161595,67.60546617643261
2.5,151.22144403686488,66.93749931264303
2.5100000000000002,149.1544993075282,66.00705881418722
2.52,147.43194408329754,64.57479182062593
2.5300000000000002,145.2004743985578,62.60361328796423
2.54,138.55003784166186,60.16443529056914
2.5500000000000003,133.13611504511513,57.1417079548083
2.56,--undefined--,53.4479634145308
2.57,--undefined--,49.91267561596236
2.58,--undefined--,47.854696666453826
2.59,--undefined--,45.87465119225249
2.6,--undefined--,42.93366605274729
2.61,--undefined--,41.293052922354136
2.62,--undefined--,40.8766366347223
2.63,--undefined--,39.952648548123314
2.64,--undefined--,38.7720823778963
2.65,--undefined--,37.48651987789423
2.66,--undefined--,36.53459194289031
2.67,--undefined--,36.81710789794046
2.68,--undefined--,37.63193237009912
2.69,--undefined--,37.46511462222352
2.7,--undefined--,36.25789130345144
2.71,--undefined--,35.30142440993929
2.72,--undefined--,35.24411892021903
2.73,--undefined--,34.68506684223187
2.74,--undefined--,33.39018276021651
2.75,--undefined--,32.53696028505079
2.7600000000000002,--undefined--,32.287318442186745
2.77,--undefined--,32.13747964860752
2.7800000000000002,--undefined--,32.102074340117156
2.79,--undefined--,32.64823790767398
2.8000000000000003,--undefined--,33.19277608336019
2.81,--undefined--,33.07834070639657
2.82,--undefined--,32.28600095098641
2.83,--undefined--,32.02088043975072
2.84,--undefined--,32.26053601099208
2.85,--undefined--,31.667059073141118
2.86,--undefined--,30.915705801793234
2.87,--undefined--,31.221942978746327
2.88,--undefined--,31.891811088615157
2.89,--undefined--,31.86476828123767
2.9,--undefined--,31.337512381677488
2.91,--undefined--,31.67333099320093
2.92,--undefined--,32.20143296670881
2.93,--undefined--,31.829688823234537
2.94,--undefined--,31.28895968761009
2.95,--undefined--,31.76663880742119
2.96,--undefined--,32.286168982176825
2.97,--undefined--,32.18643133831004
2.98,--undefined--,31.9582607410937
2.99,--undefined--,31.613423433626913
3,--undefined--,31.163246386423154
3.0100000000000002,--undefined--,31.599432089349648
3.02,--undefined--,32.20284834491385
3.0300000000000002,--undefined--,32.12081597497209
3.04,--undefined--,32.279622262104006
3.0500000000000003,--undefined--,32.885582720466644
3.06,--undefined--,32.632967511862695
3.0700000000000003,--undefined--,32.13366136989385
3.08,--undefined--,34.92910088874761
3.09,--undefined--,41.06470383919284
3.1,--undefined--,45.48608598833545
3.11,--undefined--,48.25934789183329
3.12,--undefined--,55.22133128983939
3.13,--undefined--,63.48987386761414
3.14,203.1419867985221,69.32445148262657
3.15,197.55305995139742,72.9067236472736
3.16,201.48687477869626,74.91979276707573
3.17,208.28379478894925,75.92254547221678
3.18,213.62977767283056,75.97363017517164
3.19,215.8968516859142,74.9463224391902
3.2,215.77501429375945,73.2989519937779
3.21,213.11035243014237,72.50485765735283
3.22,207.88996008804364,73.47683823275531
3.23,201.9520760286966,74.86402976621207
3.24,198.62157362490123,75.44237958335876
3.25,198.8536011937405,74.96494043988957
3.2600000000000002,201.250352028662,73.62401419445638
3.27,203.0826439076454,71.8148617925509
3.2800000000000002,202.39615133183705,70.02390105430479
3.29,199.3777991969354,68.1769479046222
3.3000000000000003,195.20420859079414,65.80789628297927
3.31,192.16119060512852,65.21190897856076
3.3200000000000003,194.57167908738916,69.71979114088757
3.33,202.17818809899813,74.17796508291455
3.34,207.75238376036492,76.53957596585204
3.35,210.08531709884807,77.25657777436362
3.36,211.60263752334575,77.40753501951863
3.37,211.69418566038516,77.09888059904895
3.38,209.49645008877079,76.19361243996464
3.39,206.8028581883554,75.85586052472638
3.4,205.53961588662486,76.41967087627553
3.41,205.15446843473282,76.51944072249737
3.42,205.2593179097328,75.29035311642777
3.43,204.04986904366288,72.94470562012653
3.44,199.1139124605739,70.23873004128602
3.45,186.48795588162048,67.1639740457168
3.46,177.44395244275216,63.803973062350764
3.47,--undefined--,61.65712933903236
3.48,--undefined--,61.46758814758602
3.49,--undefined--,61.89816514700221
3.5,--undefined--,62.89382364982106
3.5100000000000002,184.54104774457466,65.51145247012063
3.52,195.2333829543164,68.45068533843418
3.5300000000000002,200.70189664578228,70.52169162303879
3.54,202.85027586983867,71.61725662746109
3.5500000000000003,202.81047450688962,72.13150832862624
3.56,202.3522291150854,72.571459408972
3.5700000000000003,201.82406104851944,73.04111981740724
3.58,201.38773008611898,73.33863093580865
3.59,200.85841891627672,73.38899694714627
3.6,199.61312850309483,73.27608353650587
3.61,197.83649749467446,73.08867499228758
3.62,196.5423001442337,72.59620480823021
3.63,194.18433488580067,71.07056245191578
3.64,185.89726438643558,67.84181944280437
3.65,179.5557897923129,63.127640793829784
3.66,--undefined--,58.95928677078606
3.67,--undefined--,57.66670035406868
3.68,--undefined--,63.4858755664375
3.69,--undefined--,69.98923434823621
3.7,191.7832383612594,73.88089369470511
3.71,188.89762697626924,75.68365784007261
3.72,185.6565157682922,76.4581060667861
3.73,186.56439614770164,76.96120680186503
3.74,190.0857771344952,76.91448941627617
3.75,193.1373249227337,76.13093484312905
3.7600000000000002,193.87393089995666,75.35534394610413
3.77,192.65030910078204,75.24824131048112
3.7800000000000002,192.769017595347,75.36728352382568
3.79,195.65618848674922,75.17981713025237
3.8000000000000003,199.40876250975037,74.39556375523772
3.81,201.88395005704243,73.05146519341318
3.8200000000000003,202.41605834563921,71.21942296277007
3.83,201.59439794946888,68.3963077115395
3.84,199.0812974862555,63.98441717328045
3.85,197.3608540267033,59.03094598046212
3.86,197.21907033104904,57.32100013844468
3.87,196.09088771081733,57.642256764044866
3.88,196.0772986022315,59.12262495942398
3.89,200.43274217668434,63.94652582744462
3.9,204.70075564994755,69.05344998311445
3.91,205.69506413095257,72.32364423062795
3.92,206.0248604667238,74.01893197029237
3.93,205.92950503150138,74.7179210817499
3.94,203.98813798085442,74.75988393502385
3.95,200.82558485474954,74.37855456533907
3.96,199.6193545870502,73.46146955647414
3.97,196.96870929771407,71.47293555875739
3.98,189.00172550081132,68.1388771083498
3.99,183.90304431348994,63.90818524667627
4,--undefined--,61.286705063478536
4.01,--undefined--,61.30321411951364
4.0200000000000005,--undefined--,61.97672436182869
4.03,--undefined--,62.52947149300076
4.04,--undefined--,62.51424630151162
4.05,--undefined--,61.602562884056574
4.0600000000000005,--undefined--,60.32849958510266
4.07,--undefined--,64.2100903645528
4.08,206.96271730952097,69.94202398763356
4.09,198.83935651961315,73.46707304911939
4.1,192.29775330652998,75.04751816557214
4.11,188.50867526724332,75.67396027759844
4.12,189.320273875667,76.23229601672183
4.13,191.9801422308509,76.61743868849062
4.14,195.77796224022282,76.50005217406401
4.15,201.58690204222222,76.2139703190719
4.16,209.39893449281706,76.28026433917718
4.17,218.54362089070074,76.31681360171372
4.18,231.9846466092514,75.60230825750327
4.19,242.6984013111922,73.850798271827
4.2,244.86311825860162,70.86985565588564
4.21,239.52556796768926,66.43139079601858
4.22,235.15217797237025,61.31978427929764
4.23,236.18835594757698,57.7155780239595
4.24,--undefined--,54.64355794185619
4.25,--undefined--,51.6221472022576
4.26,--undefined--,49.85396811107301
4.2700000000000005,--undefined--,48.345340245632606
4.28,--undefined--,47.401445337589706
4.29,--undefined--,47.51856233348138
4.3,--undefined--,47.49507254683785
4.3100000000000005,--undefined--,50.64835329228147
4.32,--undefined--,55.6414696147359
4.33,--undefined--,58.245547852058884
4.34,174.86108221832313,58.55191431781518
4.3500000000000005,169.61862693970437,57.242564276477395
4.36,--undefined--,54.83253498178348
4.37,--undefined--,52.33702464172648
4.38,--undefined--,51.039836161189065
4.39,--undefined--,50.83033444985131
4.4,--undefined--,51.21080723613982
4.41,--undefined--,53.51166506689838
4.42,--undefined--,60.652553756527325
4.43,188.90268204494186,67.01102089131257
4.44,191.09645166036208,70.95373442390378
4.45,193.18339553582214,73.08573840431019
4.46,196.58847866663908,74.12251679371748
4.47,200.3225038689777,74.57141806498265
4.48,202.2678867117812,74.85163765494006
4.49,202.14385466038345,75.35792167760849
4.5,200.9283016559422,75.89942662428373
4.51,198.75349920299058,75.95967883340654
4.5200000000000005,195.4399098219349,75.43813181102165
4.53,190.0666179841515,74.35342903219315
4.54,182.48720461728132,72.58275768684044
4.55,174.18955872063117,70.07768573538404
4.5600000000000005,164.28854038339477,66.87414261128225
4.57,154.33353235748424,63.47456755965496
4.58,150.26501680243666,60.76656938090555
4.59,151.90522139245516,59.13390098476263
4.6000000000000005,154.97227884959733,59.62127975008465
4.61,163.34028950162582,61.998746800799914
4.62,173.30909908493174,64.8473508335995
4.63,176.44894483032886,66.82231473813334
4.64,172.84269507841853,67.05673832969725
4.65,169.27969791510233,65.20119863477036
