time,pitch,intensity
0.01,--undefined--,--undefined--
0.02,--undefined--,--undefined--
0.03,--undefined--,--undefined--
0.04,--undefined--,--undefined--
0.05,--undefined--,11.7002839592
0.06,--undefined--,11.007261841
0.07,--undefined--,10.6927730182
0.08,--undefined--,12.6459871804
0.09,--undefined--,15.1776792497
0.1,--undefined--,17.9996876702
0.11,--undefined--,21.6971489532
0.12,--undefined--,23.0696069915
0.13,--undefined--,20.1897543318
0.14,--undefined--,14.5979017804
0.15,--undefined--,10.1723707183
0.16,--undefined--,9.74137003662
0.17,--undefined--,15.4584951466
0.18,--undefined--,28.6144936025
0.19,--undefined--,41.9075113219
0.2,--undefined--,50.6996707136
0.21,--undefined--,60.0304315425
0.22,13.2462017899,70.206181844
0.23,13.9265995169,77.6985332329
0.24,15.5419378946,82.5456468435
0.25,17.0193669371,85.7679679198
0.26,17.931523772,88.0642909144
0.27,18.3174859197,89.6387255133
0.28,18.4706867115,90.4526288149
0.29,18.641026518,90.7362568169
0.3,19.1230912711,90.9533971955
0.31,19.6997117062,91.3359519058
0.32,20.1548724635,91.8327540852
0.33,20.2206881516,92.3944248441
0.34,20.2369314174,92.8691523208
0.35000000000000003,20.2525981042,93.1321630861
0.36,20.1989759036,93.1193648427
0.37,20.1870545051,92.8528566627
0.38,20.2599024423,92.6081628493
0.39,20.2249727162,92.4569346084
0.4,20.1775254841,92.2820710375
0.41000000000000003,20.0885185661,92.0919174978
0.42,20.0752440402,91.9768635727
0.43,19.9436031053,91.9906409822
0.44,19.6629152636,92.146091447
0.45,19.3671057478,92.2239682724
0.46,19.1272562675,91.9794184534
0.47000000000000003,18.9076893456,91.5403766471
0.48,18.6877166053,90.9270848583
0.49,18.4519789254,89.5048321366
0.5,18.2200500392,86.5732222832
0.51,17.7002080381,81.9473968625
0.52,17.2051255539,76.1715727738
0.53,17.6121017588,70.4497141631
0.54,18.3104783199,65.9860993648
0.55,--undefined--,65.6208321255
0.56,--undefined--,70.7275692702
0.5700000000000001,--undefined--,75.5754584651
0.58,--undefined--,77.0583164538
0.59,--undefined--,76.1052226417
0.6,--undefined--,74.9327205313
0.61,--undefined--,74.7386143901
0.62,--undefined--,74.142245819
0.63,--undefined--,72.8631272651
0.64,--undefined--,71.845957996
0.65,--undefined--,71.1512078105
0.66,--undefined--,70.2012476819
0.67,--undefined--,68.4290721162
0.68,--undefined--,66.6749600675
0.6900000000000001,20.930142384,67.8394252807
0.7000000000000001,21.0823058593,72.3578861341
0.71,20.8898995368,76.8341258139
0.72,20.7140395118,79.8882176302
0.73,20.5859802441,81.736898329
0.74,20.325277675,82.9615031719
0.75,20.0747650003,84.0974787868
0.76,19.9594340103,85.2742219635
0.77,20.0189589773,86.2603191849
0.78,20.1853986907,86.9628069424
0.79,20.3872749313,87.5097520877
0.8,20.4448554228,87.8215622605
0.81,20.4714313864,87.6952407047
0.8200000000000001,20.6244826255,87.1242598892
0.8300000000000001,20.8365009622,86.494838424
0.84,20.8830303371,86.4171314328
0.85,20.9729150058,86.8202033821
0.86,21.1451049659,86.8411460869
0.87,21.3391565918,85.9230288775
0.88,21.7296993262,84.1834458764
0.89,21.9368999653,81.9839959094
0.9,21.8230999456,79.5054723003
0.91,21.404889767,76.7033155767
0.92,21.0221700298,73.6546201729
0.93,20.9020873902,70.6775365815
0.9400000000000001,20.7241583485,67.3592884074
0.9500000000000001,20.5656706677,63.4784910481
0.96,20.3202829029,61.1722406184
0.97,--undefined--,61.3862096493
0.98,--undefined--,61.4830255273
0.99,--undefined--,61.111168697
1,--undefined--,61.0836991974
1.01,--undefined--,61.0377415575
1.02,--undefined--,60.6514464685
1.03,--undefined--,59.9392556788
1.04,--undefined--,59.2114658324
1.05,--undefined--,58.4073609554
1.06,--undefined--,57.1929575367
1.07,--undefined--,56.0818878123
1.08,--undefined--,55.7210319409
1.09,--undefined--,55.6398703699
1.1,--undefined--,54.7786853593
1.11,--undefined--,53.7467522239
1.12,--undefined--,53.7494668315
1.1300000000000001,--undefined--,53.8966229762
1.1400000000000001,--undefined--,52.9404696572
1.1500000000000001,--undefined--,51.5155625152
1.16,--undefined--,50.9017451315
1.17,--undefined--,50.6374473367
1.18,--undefined--,49.6799244711
1.19,--undefined--,48.5490628329
1.2,--undefined--,47.8081592596
1.21,--undefined--,47.0303034112
1.22,--undefined--,45.5606021737
1.23,--undefined--,43.4347816252
1.24,--undefined--,41.5707704526
1.25,--undefined--,40.1182217069
1.26,--undefined--,38.4347506506
1.27,--undefined--,36.6990658864
1.28,--undefined--,36.4364106992
1.29,--undefined--,40.4091401061
1.3,--undefined--,47.6120298762
1.31,11.3148046187,53.9899768379
1.32,11.5768902222,59.1632318675
1.33,12.6623341105,63.8686388095
1.34,12.9988930294,67.9427668044
1.35,13.1409088807,70.9518782501
1.36,13.326448254,72.8822279745
1.37,13.6063143344,73.920689577
1.3800000000000001,14.1680180187,74.4494076268
1.3900000000000001,14.7320578989,75.2000167896
1.4000000000000001,15.8421774594,76.5079988296
1.41,16.3739513143,77.6163160363
1.42,16.711263056,77.7517618947
1.43,16.8395702104,76.3688770255
1.44,16.817121058,72.9140323346
1.45,16.8436692877,68.08529531
1.46,16.663114842,64.1759506694
1.47,16.6053085958,62.569518766
1.48,17.5592701531,62.4219696364
1.49,17.7323406892,62.8380737558
1.5,18.3465123911,64.1833676601
1.51,19.1540085969,67.5958631943
1.52,19.3820542845,72.2048047203
1.53,19.3599368484,75.7351895651
1.54,19.1259637794,78.41835306
1.55,18.8809048098,80.779067569
1.56,18.6237192003,82.1850149209
1.57,18.3425629413,82.455962662
1.58,18.0951954183,82.045908576
1.59,17.9471298178,81.3726802809
1.6,17.8665587712,80.5998027563
1.61,17.8050779245,79.7807161241
1.62,17.6626636373,78.9978525469
1.6300000000000001,17.6080401625,78.429731842
1.6400000000000001,17.5335297199,77.8100203298
1.6500000000000001,17.3024306843,75.7661443049
1.6600000000000001,16.8539770005,70.7980034193
1.67,16.1666384183,63.3382423912
1.68,16.0738236237,56.6758728049
1.69,--undefined--,52.9412147213
1.7,--undefined--,51.1257233768
1.71,--undefined--,51.3639396332
1.72,--undefined--,52.2026382368
1.73,--undefined--,54.1925200879
1.74,15.2353820895,60.7947587048
1.75,15.8235639783,69.6336754992
1.76,16.3564439453,75.934644671
1.77,16.4253942381,79.1461790513
1.78,16.1855333597,79.872803439
1.79,15.9591488574,79.3478709086
1.8,15.6882006029,78.9925227189
1.81,15.5345315938,79.4250102159
1.82,15.4421398712,80.2103384147
1.83,15.4063580784,80.6845501
1.84,15.3382265152,80.8736552918
1.85,15.2164684869,81.1450097389
1.86,15.1160377645,81.5362686571
1.87,15.0161022699,81.7148979538
1.8800000000000001,14.8277218476,81.4904102302
1.8900000000000001,14.6980316968,81.1503750593
1.9000000000000001,14.5195409876,81.0096497204
1.9100000000000001,14.3968216964,80.923020015
1.92,14.1641272147,80.6776381178
1.93,13.9609673914,80.469960889
1.94,13.6924847406,80.3775894252
1.95,13.4139715705,80.164997431
1.96,13.115210626,79.8177924024
1.97,13.0058245725,79.3901084768
1.98,12.7848710939,78.8688512462
1.99,12.6402008089,78.5484452689
2,12.6083453194,78.9032606971
2.0100000000000002,12.5689357591,79.3474280494
2.02,12.2494476126,78.7638100823
2.0300000000000002,11.9925543301,77.140486531
2.04,11.6159293717,74.6747537113
2.05,11.4413551947,70.994183736
2.06,10.7020239376,66.2617148137
2.07,10.5461616476,61.3762110203
2.08,--undefined--,56.9496298925
2.09,--undefined--,54.0426091451
2.1,--undefined--,53.2798004739
2.11,--undefined--,53.4125271061
2.12,--undefined--,53.5345635651
2.13,--undefined--,53.569761935
2.14,--undefined--,53.8994740548
2.15,--undefined--,54.2782305215
2.16,--undefined--,54.6702354296
2.17,--undefined--,55.404752306
2.18,--undefined--,55.3004894978
2.19,--undefined--,53.2645982906
2.2,--undefined--,50.458221385
2.21,--undefined--,48.3943740716
2.22,--undefined--,46.7915866576
2.23,--undefined--,45.6976557283
2.24,--undefined--,45.7749726235
2.25,--undefined--,46.0348165824
2.2600000000000002,--undefined--,45.0528549306
2.27,--undefined--,43.5769907295
2.2800000000000002,--undefined--,42.585411435
2.29,--undefined--,41.7576286147
2.3000000000000003,--undefined--,41.1451478937
2.31,--undefined--,40.591318033
2.32,--undefined--,39.7247007177
2.33,--undefined--,38.707189052
2.34,--undefined--,37.4897948956
2.35,--undefined--,36.0052983542
2.36,--undefined--,34.3743245624
2.37,--undefined--,33.1335930773
2.38,--undefined--,32.5291116842
2.39,--undefined--,31.5779173858
2.4,--undefined--,30.5928884217
2.41,--undefined--,30.0442334441
2.42,--undefined--,29.6226784142
2.43,--undefined--,29.6363782306
2.44,--undefined--,29.506952266
2.45,--undefined--,29.1255145895
2.46,--undefined--,28.593087694
2.47,--undefined--,27.6089631133
2.48,--undefined--,26.4717173219
2.49,--undefined--,24.951923812
2.5,--undefined--,22.7505012553
2.5100000000000002,--undefined--,20.438096978
2.52,--undefined--,18.6242582296
2.5300000000000002,--undefined--,17.1288004023
2.54,--undefined--,15.6745796743
2.5500000000000003,--undefined--,14.127477539
2.56,--undefined--,11.6999928741
2.57,--undefined--,8.26731607093
2.58,--undefined--,8.34993261561
2.59,--undefined--,19.8311188492
2.6,--undefined--,37.1901056697
2.61,--undefined--,49.4622206373
2.62,--undefined--,56.9070725968
2.63,--undefined--,60.0379798147
2.64,--undefined--,59.2467006584
2.65,--undefined--,55.5757054464
2.66,--undefined--,51.9467411616
2.67,--undefined--,53.9642919396
2.68,22.3742609088,63.0256267785
2.69,22.5928161238,71.6361753327
2.7,22.6902646185,77.1653965914
2.71,22.3775446302,80.2473853328
2.72,22.2883021983,82.0260357814
2.73,22.3706365305,83.4673556037
2.74,22.4127979456,84.7836620975
2.75,22.3717457607,85.8478188187
2.7600000000000002,22.277027491,86.4297820846
2.77,22.1666690976,85.7370882326
2.7800000000000002,22.0120635643,82.3487860992
2.79,--undefined--,74.8804249956
2.8000000000000003,--undefined--,64.6361624221
2.81,--undefined--,57.5099715723
2.82,--undefined--,56.4795051909
2.83,19.0149900173,60.4668975659
2.84,20.0390061918,69.26128342
2.85,20.8648805841,76.4507357762
2.86,20.925228794,79.751592016
2.87,20.2979032877,79.5614564671
2.88,18.9925689629,77.3918446366
2.89,17.7317619311,75.043914661
2.9,16.9036285636,72.3957701061
2.91,16.1192822472,67.7377786531
2.92,14.2292604534,62.4286353579
2.93,13.9127779083,60.4940725035
2.94,14.5012083714,61.3077623525
2.95,14.6644765633,62.4734042293
2.96,15.9205013208,65.1131434039
2.97,16.8799249291,70.5067388269
2.98,17.3300376133,76.713791985
2.99,17.5083976499,80.7794672456
3,17.6001330938,82.6461506148
3.0100000000000002,17.5849150304,83.511099168
3.02,17.6920444025,84.2494194388
3.0300000000000002,17.535849255,85.0270704137
3.04,17.0403948294,85.595104328
3.0500000000000003,16.5168501646,85.5628502162
3.06,16.0069809978,84.4611740492
3.0700000000000003,15.4674348279,82.1572731302
3.08,14.9512865855,78.7793354961
3.09,14.4400003575,73.5858944638
3.1,--undefined--,65.4066386392
3.11,--undefined--,56.4927034977
3.12,--undefined--,51.7088049818
3.13,--undefined--,50.4163464121
3.14,--undefined--,50.0963300468
3.15,--undefined--,49.5679250825
3.16,--undefined--,48.6916326433
3.17,--undefined--,49.8904490454
3.18,--undefined--,54.2270849818
3.19,11.4433342349,58.613965468
3.2,11.1025659224,61.0048923093
3.21,9.81388942803,61.9059089721
3.22,9.24413232123,62.3706551175
3.23,9.07338644847,62.3728328547
3.24,9.06020132355,60.6567331103
3.25,8.49525436914,56.930631196
3.2600000000000002,--undefined--,55.2024012551
3.27,--undefined--,59.7195697588
3.2800000000000002,--undefined--,64.863716448
3.29,--undefined--,66.7454567037
3.3000000000000003,--undefined--,66.1622400954
3.31,--undefined--,64.5734021362
3.3200000000000003,--undefined--,64.0085453447
3.33,--undefined--,64.8883016261
3.34,--undefined--,64.9345958157
3.35,--undefined--,62.9952528614
3.36,--undefined--,60.2374899122
3.37,8.79097532524,59.2112044614
3.38,8.90329538837,61.1049589673
3.39,8.93786169387,63.8599755632
3.4,8.83856910434,65.3113459493
3.41,8.47910921018,65.0222996549
3.42,8.22130371569,64.0258954986
3.43,8.12436119823,63.7727429655
3.44,7.91617803579,64.1475384798
3.45,7.75721498185,64.4140677633
3.46,7.94392343316,64.75807963
3.47,8.14556227754,65.3196236634
3.48,8.32678244013,65.8185248548
3.49,8.48712874058,65.9866576293
3.5,8.66685152585,65.7786979949
3.5100000000000002,9.1930618035,65.349413268
3.52,9.59875789468,64.85117543
3.5300000000000002,10.0064586225,64.4915118191
3.54,10.2581439152,64.2966862808
3.5500000000000003,10.5350669196,63.6850145155
3.56,10.7927015601,61.6541015944
3.5700000000000003,--undefined--,57.328641378
3.58,--undefined--,50.6118539366
3.59,--undefined--,45.9784524837
3.6,--undefined--,51.872399869
3.61,--undefined--,63.5376360619
3.62,--undefined--,71.0089915344
3.63,--undefined--,75.0317267461
3.64,--undefined--,76.1619293849
3.65,--undefined--,74.7762899639
3.66,--undefined--,71.8847015419
3.67,--undefined--,69.0518404277
3.68,--undefined--,67.3826167239
3.69,--undefined--,66.8393048848
3.7,--undefined--,66.5692062025
3.71,--undefined--,65.9924327898
3.72,--undefined--,65.0668436236
3.73,--undefined--,63.8287172936
3.74,--undefined--,62.324177464
3.75,--undefined--,60.5279156348
3.7600000000000002,--undefined--,58.3218637116
3.77,--undefined--,55.6679075423
3.7800000000000002,--undefined--,52.5984865573
3.79,--undefined--,49.162105048
3.8000000000000003,--undefined--,45.590489425
3.81,--undefined--,41.7990707504
3.8200000000000003,--undefined--,37.7463712263
3.83,--undefined--,34.1623361402
3.84,--undefined--,30.8194292558
3.85,--undefined--,27.2237266658
3.86,--undefined--,24.6721616982
3.87,--undefined--,23.3267199991
3.88,--undefined--,21.2051554792
3.89,--undefined--,18.6850633931
3.9,--undefined--,16.61110948
3.91,--undefined--,14.5021433322
3.92,--undefined--,12.984349128
3.93,--undefined--,12.2675910947
3.94,--undefined--,11.5150797546
3.95,--undefined--,10.2402691465
3.96,--undefined--,9.28199295814
3.97,--undefined--,9.67433017152
3.98,--undefined--,10.6566410985
3.99,--undefined--,11.3173683303
4,--undefined--,11.5645986731
4.01,--undefined--,11.2849131391
4.0200000000000005,--undefined--,9.87362226498
4.03,--undefined--,8.08602136506
4.04,--undefined--,9.57231980818
4.05,--undefined--,16.3604487922
4.0600000000000005,--undefined--,23.9004679979
4.07,--undefined--,27.7551637386
4.08,--undefined--,27.645948808
4.09,--undefined--,24.671121599
4.1,--undefined--,20.799811232
4.11,--undefined--,18.2913692737
4.12,--undefined--,19.3918408594
4.13,--undefined--,23.8431031696
4.14,--undefined--,27.7849595011
4.15,--undefined--,29.95794491
4.16,--undefined--,30.3998514868
4.17,--undefined--,28.9160017244
4.18,--undefined--,26.2241540827
4.19,--undefined--,23.6796132905
4.2,--undefined--,21.7966969655
4.21,--undefined--,20.4105672653
4.22,--undefined--,19.4740884171
4.23,--undefined--,19.1735382045
4.24,--undefined--,19.5825043523
4.25,--undefined--,20.1419866173
4.26,--undefined--,20.4734653476
4.2700000000000005,--undefined--,21.0705071512
4.28,--undefined--,21.9769678341
4.29,--undefined--,22.2569580277
4.3,--undefined--,21.6866286827
4.3100000000000005,--undefined--,20.8650425718
4.32,--undefined--,20.6046850166
4.33,--undefined--,20.8759393195
4.34,--undefined--,20.5924343277
4.3500000000000005,--undefined--,19.8531676493
4.36,--undefined--,21.0461369601
4.37,--undefined--,26.4211804217
4.38,--undefined--,33.6138773827
4.39,--undefined--,38.9645358763
4.4,--undefined--,42.0275592124
4.41,--undefined--,43.4722965836
4.42,--undefined--,44.3885539501
4.43,--undefined--,45.4944336191
4.44,--undefined--,46.3970526095
4.45,--undefined--,46.8813191196
4.46,--undefined--,46.0950447646
4.47,--undefined--,43.054203068
4.48,--undefined--,39.4476716413
4.49,--undefined--,36.7810189015
4.5,--undefined--,33.727190317
4.51,--undefined--,30.322384661
4.5200000000000005,--undefined--,28.4811133372
4.53,--undefined--,28.8420347841
4.54,--undefined--,29.835278998
4.55,--undefined--,31.0406890846
4.5600000000000005,--undefined--,32.3924877158
4.57,--undefined--,32.8883121914
4.58,--undefined--,31.7248403798
4.59,--undefined--,30.0359228246
4.6000000000000005,--undefined--,28.9009224431
4.61,--undefined--,27.777361044
4.62,--undefined--,26.8504823806
4.63,--undefined--,25.9675013328
4.64,--undefined--,24.003927232
4.65,--undefined--,21.6594712646
4.66,--undefined--,20.0250294541
4.67,--undefined--,19.3771034275
4.68,--undefined--,21.2235836568
4.69,--undefined--,25.0779849974
4.7,--undefined--,27.1390326732
4.71,--undefined--,26.1188789101
4.72,--undefined--,22.5653340783
4.73,--undefined--,17.7437264583
4.74,--undefined--,14.6854592323
4.75,--undefined--,15.9785317331
4.76,--undefined--,18.951165608
4.7700000000000005,--undefined--,19.9036755295
4.78,--undefined--,18.3237324176
4.79,--undefined--,16.2066762259
4.8,--undefined--,15.9034591202
4.8100000000000005,--undefined--,16.8625244922
4.82,--undefined--,17.5788551998
4.83,--undefined--,18.9400924756
4.84,--undefined--,20.9378878128
4.8500000000000005,--undefined--,21.1509711733
4.86,--undefined--,18.7215887179
4.87,--undefined--,16.3394073484
4.88,--undefined--,17.1419053949
4.89,--undefined--,19.8958525899
4.9,--undefined--,21.6667742839
4.91,--undefined--,20.9613278912
4.92,--undefined--,19.6728529866
4.93,--undefined--,19.9305467801
4.94,--undefined--,20.528020443
4.95,--undefined--,20.6450399352
4.96,--undefined--,20.0170483078
4.97,--undefined--,17.9779245529
4.98,--undefined--,15.60466439
4.99,--undefined--,14.8538228672
5,--undefined--,15.0121339731
5.01,--undefined--,13.9363338742
5.0200000000000005,--undefined--,11.7484239725
5.03,--undefined--,9.64849960048
5.04,--undefined--,8.62431305583
5.05,--undefined--,8.67138234041
5.0600000000000005,--undefined--,8.89291209621
5.07,--undefined--,10.3180248514
5.08,--undefined--,12.5574650992
5.09,--undefined--,14.7120830348
5.1000000000000005,--undefined--,17.4182270398
5.11,--undefined--,19.4076820599
5.12,--undefined--,19.8361171844
5.13,--undefined--,20.3225409537
5.14,--undefined--,21.9902528028
5.15,--undefined--,23.2502885995
5.16,--undefined--,23.4762796693
5.17,--undefined--,22.9717093173
5.18,--undefined--,21.6578418119
5.19,--undefined--,20.5102901998
5.2,--undefined--,20.5953459008
5.21,--undefined--,21.3058079339
5.22,--undefined--,21.4281596626
5.23,--undefined--,20.1136841983
5.24,--undefined--,17.7576829042
5.25,--undefined--,15.4137156296
5.26,--undefined--,13.4105610069
5.2700000000000005,--undefined--,11.4869973719
5.28,--undefined--,10.0331019442
5.29,--undefined--,9.56280840929
5.3,--undefined--,9.34277158601
5.3100000000000005,--undefined--,8.52316816597
5.32,--undefined--,7.28356376567
5.33,--undefined--,7.14209970869
5.34,--undefined--,9.45994528127
5.3500000000000005,--undefined--,12.1292535743
5.36,--undefined--,13.4844312276
5.37,--undefined--,14.3614689882
5.38,--undefined--,14.9322427171
5.39,--undefined--,15.0705744136
5.4,--undefined--,15.4757843472
5.41,--undefined--,18.869085624
5.42,--undefined--,28.4569348566
5.43,--undefined--,40.0397643896
5.44,--undefined--,48.3380775547
5.45,--undefined--,53.1852742495
5.46,--undefined--,58.570261998
5.47,7.42206434243,65.7272637176
5.48,7.85599076712,71.0470809273
5.49,8.98034238044,74.0402805337
5.5,10.2908112537,75.7130300177
5.51,11.0604615778,76.9622549817
5.5200000000000005,11.4486002319,78.1248230754
5.53,12.1194799301,79.2954829883
5.54,12.7061341193,80.5822813602
5.55,12.7048186831,81.8381937819
5.5600000000000005,13.003410541,83.0143809361
5.57,13.6848675241,84.4455732316
5.58,14.073497105,85.9386753289
5.59,14.8070273446,86.5044122579
5.6000000000000005,15.1639409062,85.3708640729
5.61,15.3054669527,82.8225752792
5.62,14.2198729724,80.0112936136
5.63,14.0040066234,77.3548167221
5.64,14.0897850534,74.3185381316
5.65,13.5291667369,71.9806220279
5.66,14.3431681161,71.8220956604
5.67,14.4097818539,72.3161295768
5.68,14.4381655484,72.3679861318
5.69,14.3755849523,72.3423142677
5.7,14.3169212582,72.6841376492
5.71,14.3596270578,73.9545229921
5.72,14.3770046911,76.5809615698
5.73,14.3791293669,79.4160049432
5.74,14.3693448146,81.1418441066
5.75,14.1231559659,82.1734577445
5.76,14.1060157057,83.1121788231
5.7700000000000005,14.0915830379,83.635157668
5.78,13.9744486824,83.6192228326
5.79,13.8592013168,83.8712007071
