time,pitch,intensity
0.01,--undefined--,--undefined--
0.02,--undefined--,--undefined--
0.03,--undefined--,--undefined--
0.04,--undefined--,--undefined--
0.05,--undefined--,--undefined--
0.06,--undefined--,--undefined--
0.07,--undefined--,11.3755441416
0.08,--undefined--,12.8689522211
0.09,--undefined--,15.4537747219
0.1,--undefined--,18.3925313887
0.11,--undefined--,20.6880949039
0.12,--undefined--,21.2328739352
0.13,--undefined--,19.5093077777
0.14,--undefined--,15.830310665
0.15,--undefined--,12.3681369964
0.16,--undefined--,14.6397389061
0.17,--undefined--,24.9724006064
0.18,--undefined--,36.410002205
0.19,--undefined--,46.3462889316
0.2,--undefined--,56.0995219965
0.21,--undefined--,65.3425928079
0.22,--undefined--,73.0071563359
0.23,--undefined--,78.8225188765
0.24,--undefined--,83.0659928005
0.25,29.2653363073,86.1302056394
0.26,29.9527012137,88.3166115903
0.27,30.4045220966,89.7826051433
0.28,30.6451165284,90.6445031655
0.29,30.9095127177,91.1049061223
0.3,31.5755346626,91.4317706517
0.31,32.3392157442,91.8149497286
0.32,32.8803115396,92.2917196452
0.33,33.031950343,92.7929868349
0.34,33.0588692424,93.2088249187
0.35000000000000003,33.0613406454,93.4397784169
0.36,33.0148358889,93.4458141879
0.37,33.0149366744,93.2835341987
0.38,33.0591054672,93.0708489567
0.39,33.0434869054,92.8789615327
0.4,32.9645375326,92.7037755592
0.41000000000000003,32.8797060287,92.547620351
0.42,32.8081483761,92.4559515491
0.43,32.6223895622,92.4652903193
0.44,32.2498136447,92.5297862619
0.45,31.8635724555,92.5154063982
0.46,31.5299912723,92.3074693321
0.47000000000000003,31.2317533914,91.8591677364
0.48,30.9362159324,91.0411097901
0.49,30.6415112908,89.5335960518
0.5,30.3690077103,86.9719596674
0.51,29.9014020308,83.1669680782
0.52,29.3213795355,78.2479240716
0.53,29.4398347163,72.8470772323
0.54,30.3217919587,68.7677301251
0.55,--undefined--,68.6264002951
0.56,--undefined--,71.9445767992
0.5700000000000001,--undefined--,75.0227482776
0.58,--undefined--,76.3512152001
0.59,--undefined--,76.2315851458
0.6,--undefined--,75.5307948236
0.61,--undefined--,74.8720838583
0.62,--undefined--,74.1665111274
0.63,--undefined--,73.2242717803
0.64,--undefined--,72.2255617491
0.65,--undefined--,71.2886454186
0.66,--undefined--,70.1864052733
0.67,--undefined--,68.8537151936
0.68,--undefined--,68.2769133153
0.6900000000000001,34.0739299746,69.9976668548
0.7000000000000001,34.1127022723,73.6400458437
0.71,33.8998879219,77.2714706871
0.72,33.6896894316,80.0123696805
0.73,33.48949831,81.9172139135
0.74,33.1597494797,83.3173442572
0.75,32.8424751744,84.5140087406
0.76,32.715535015,85.6074397539
0.77,32.7775950923,86.5416130643
0.78,32.9986219515,87.2687334046
0.79,33.2371166574,87.7744359935
0.8,33.338469776,88.0035098829
0.81,33.4012753371,87.8880443623
0.8200000000000001,33.586392651,87.4924368964
0.8300000000000001,33.8393127909,87.0917923296
0.84,33.9596801269,86.9660033765
0.85,34.0846609144,87.0249386186
0.86,34.2901298236,86.8266924029
0.87,34.5420086155,86.0087495436
0.88,34.9999137545,84.5114097523
0.89,35.3100415686,82.477197397
0.9,35.239767361,80.0646948353
0.91,34.7683344645,77.3600287828
0.92,34.2607065895,74.431363227
0.93,33.9756949997,71.3441074102
0.9400000000000001,33.7506263127,68.0813684599
0.9500000000000001,33.5542147021,64.8421440542
0.96,33.4206602536,62.4722954164
0.97,--undefined--,61.5669707969
0.98,--undefined--,61.4232323679
0.99,--undefined--,61.3082182217
1,--undefined--,61.1729973516
1.01,--undefined--,60.994258006
1.02,--undefined--,60.6203759827
1.03,--undefined--,60.0231549627
1.04,--undefined--,59.2758339078
1.05,--undefined--,58.3859393748
1.06,--undefined--,57.3709781119
1.07,--undefined--,56.4592802743
1.08,--undefined--,55.8731640019
1.09,--undefined--,55.4202351233
1.1,--undefined--,54.7966712836
1.11,--undefined--,54.1650465268
1.12,--undefined--,53.8233065891
1.1300000000000001,--undefined--,53.521234124
1.1400000000000001,--undefined--,52.8252789562
1.1500000000000001,--undefined--,51.8593999008
1.16,--undefined--,51.0516542517
1.17,--undefined--,50.4097762308
1.18,--undefined--,49.6277565027
1.19,--undefined--,48.6962787936
1.2,--undefined--,47.7822820489
1.21,--undefined--,46.7779551686
1.22,--undefined--,45.4038885535
1.23,--undefined--,43.6437123012
1.24,--undefined--,41.7995873723
1.25,--undefined--,40.0891939144
1.26,--undefined--,38.4772416217
1.27,--undefined--,37.4476645727
1.28,--undefined--,38.8028910295
1.29,--undefined--,43.5758477947
1.3,--undefined--,49.7193491373
1.31,20.9790030201,55.4061252779
1.32,21.2211352709,60.4103166691
1.33,22.6985706521,64.7601193879
1.34,23.1379593329,68.3329794621
1.35,23.3333664177,71.0184689534
1.36,23.5776430954,72.8388677395
1.37,23.9013217622,73.9798437142
1.3800000000000001,24.578046374,74.8063444175
1.3900000000000001,25.1561924985,75.7109020567
1.4000000000000001,27.051641482,76.7358396022
1.41,27.7947348359,77.468503016
1.42,28.1751119828,77.3820780031
1.43,28.346811797,76.0848296744
1.44,28.3791393674,73.4087822045
1.45,28.3530168225,69.6492592333
1.46,28.1484000645,65.88882727
1.47,28.0542039066,63.5147937974
1.48,29.3648035856,62.8777889313
1.49,29.6316601743,63.5564932648
1.5,30.5074736553,65.6688506364
1.51,31.6368473729,69.1337952423
1.52,31.8732574091,72.9114073349
1.53,31.7672321183,76.1927083931
1.54,31.4675751651,78.8522714973
1.55,31.1541806364,80.8536869707
1.56,30.8301731436,82.0613127837
1.57,30.4684199688,82.4591286915
1.58,30.1411300447,82.2364688715
1.59,29.9232023917,81.6568049158
1.6,29.8051722786,80.9166905702
1.61,29.7002291662,80.1315798897
1.62,29.5480309119,79.3871917511
1.6300000000000001,29.4464413375,78.6594002584
1.6400000000000001,29.3474132116,77.5935466976
1.6500000000000001,29.125090129,75.5157465244
1.6600000000000001,28.5281686047,71.8032120894
1.67,28.2779745183,66.3158827096
1.68,27.4652372894,59.939962666
1.69,--undefined--,54.7126184193
1.7,--undefined--,52.1320770135
1.71,--undefined--,51.7825388509
1.72,--undefined--,53.3762987078
1.73,--undefined--,57.9828800768
1.74,26.6392965515,64.9846766171
1.75,27.2886915257,71.4650443553
1.76,27.7415134692,76.0307149172
1.77,27.7591757675,78.6234179041
1.78,27.4945723697,79.6157165345
1.79,27.1856839667,79.6725857664
1.8,26.8068896312,79.5999613007
1.81,26.5868166042,79.8851992258
1.82,26.4747620038,80.4160073554
1.83,26.4049515337,80.8782716913
1.84,26.3083368961,81.2020872017
1.85,26.1525500267,81.4927099983
1.86,26.0124774635,81.7569827867
1.87,25.8648034427,81.8633640665
1.8800000000000001,25.6237567752,81.7494273039
1.8900000000000001,25.4591041562,81.5286558335
1.9000000000000001,25.1876921433,81.3374554281
1.9100000000000001,25.0080377184,81.1753171723
1.92,24.7275787582,80.9921261699
1.93,24.4293034304,80.8078897826
1.94,24.068916662,80.632492849
1.95,23.6711869657,80.405284566
1.96,23.3240745666,80.0773143069
1.97,23.0722555298,79.6616624477
1.98,22.800999779,79.2655898304
1.99,22.6268187941,79.0943980876
2,22.570529576,79.2036857356
2.0100000000000002,22.3977502917,79.2247862084
2.02,22.055994032,78.6495420427
2.0300000000000002,21.7871639458,77.231448965
2.04,21.3098821404,74.9243542249
2.05,21.0099152149,71.6956524237
2.06,19.9733525962,67.5997964019
2.07,19.7326246541,62.9888725191
2.08,--undefined--,58.5826824062
2.09,--undefined--,55.3286965691
2.1,--undefined--,53.7854166202
2.11,--undefined--,53.4665322478
2.12,--undefined--,53.534051338
2.13,--undefined--,53.6939372863
2.14,--undefined--,53.9605256263
2.15,--undefined--,54.3389623928
2.16,--undefined--,54.7905302681
2.17,--undefined--,55.0700360947
2.18,--undefined--,54.6527401014
2.19,--undefined--,53.2075969676
2.2,--undefined--,51.028250162
2.21,--undefined--,48.825566711
2.22,--undefined--,47.1286408106
2.23,--undefined--,46.1335692736
2.24,--undefined--,45.7785251799
2.25,--undefined--,45.5280803897
2.2600000000000002,--undefined--,44.8276370785
2.27,--undefined--,43.7306386809
2.2800000000000002,--undefined--,42.6420370931
2.29,--undefined--,41.7741029825
2.3000000000000003,--undefined--,41.0720530178
2.31,--undefined--,40.3847974732
2.32,--undefined--,39.5642191453
2.33,--undefined--,38.5487774095
2.34,--undefined--,37.3301039631
2.35,--undefined--,35.9245542878
2.36,--undefined--,34.4763574876
2.37,--undefined--,33.2385048362
2.38,--undefined--,32.2764972296
2.39,--undefined--,31.4030846136
2.4,--undefined--,30.5686434269
2.41,--undefined--,29.9246179934
2.42,--undefined--,29.5493763432
2.43,--undefined--,29.3598846054
2.44,--undefined--,29.1658800546
2.45,--undefined--,28.80536283
2.46,--undefined--,28.2018358975
2.47,--undefined--,27.3173777684
2.48,--undefined--,26.1354155185
2.49,--undefined--,24.594208444
2.5,--undefined--,22.6662988367
2.5100000000000002,--undefined--,20.5578007334
2.52,--undefined--,18.6058484696
2.5300000000000002,--undefined--,16.9323177387
2.54,--undefined--,15.3683941055
2.5500000000000003,--undefined--,13.6047862146
2.56,--undefined--,11.3174134772
2.57,--undefined--,10.9884011524
2.58,--undefined--,18.8282171694
2.59,--undefined--,32.6057911222
2.6,--undefined--,43.7384431208
2.61,--undefined--,51.584262823
2.62,--undefined--,56.4723554759
2.63,--undefined--,58.6405940594
2.64,--undefined--,58.3428044788
2.65,--undefined--,56.2635719323
2.66,--undefined--,55.2778303942
2.67,--undefined--,59.3605588966
2.68,36.2222233202,66.7369687162
2.69,36.3835162943,72.9970203183
2.7,36.3091343429,77.4041218773
2.71,36.0190617926,80.3304308873
2.72,35.918556086,82.3193478816
2.73,35.9869152805,83.8352656944
2.74,36.031732254,85.0816939512
2.75,35.984263348,85.9782018008
2.7600000000000002,35.8717977085,86.1999316885
2.77,35.7377264401,85.2251859671
2.7800000000000002,35.5920676011,82.4710163213
2.79,35.4360624181,77.4613934761
2.8000000000000003,--undefined--,70.1352946642
2.81,--undefined--,62.4777221389
2.82,--undefined--,60.0073539623
2.83,32.5147458507,65.0311792263
2.84,33.5966183876,71.684262367
2.85,34.0039963916,76.4230960472
2.86,33.8879037745,78.7913535264
2.87,33.1825443929,79.0363137236
2.88,31.5804596122,77.7161370365
2.89,29.8481813217,75.4870245253
2.9,28.726948754,72.6129344379
2.91,27.7787614936,68.9055354449
2.92,25.7418547467,64.7955958493
2.93,24.9536292706,62.0341850337
2.94,25.2520020436,61.8344533435
2.95,25.3660822096,63.7288407664
2.96,27.1289683515,67.6069478869
2.97,28.6018265247,72.7582832353
2.98,29.1328488021,77.4142029053
2.99,29.3359656873,80.6743019625
3,29.4079292307,82.6359693904
3.0100000000000002,29.4470961959,83.7922790836
3.02,29.4867184972,84.6170646905
3.0300000000000002,29.2703092165,85.2889197998
3.04,28.6095896883,85.6688062252
3.0500000000000003,27.9523173807,85.4701599631
3.06,27.3065059636,84.4329916384
3.0700000000000003,26.6176003059,82.4085708472
3.08,25.9206608814,79.2900945914
3.09,25.2157704697,74.851313102
3.1,--undefined--,68.7825496008
3.11,--undefined--,61.3476253417
3.12,--undefined--,54.6005769365
3.13,--undefined--,51.0837955125
3.14,--undefined--,50.048324888
3.15,--undefined--,49.5370250541
3.16,--undefined--,49.7174238836
3.17,--undefined--,51.7145641516
3.18,20.9904129425,55.2232834653
3.19,20.9503144485,58.4881093475
3.2,20.4802132619,60.6377655587
3.21,19.5318717734,61.7843472922
3.22,18.0539898579,62.2046713708
3.23,17.7083881509,61.8285615251
3.24,17.67340633,60.3603585865
3.25,16.882959951,58.3740109985
3.2600000000000002,--undefined--,58.2450467555
3.27,--undefined--,61.146785182
3.2800000000000002,--undefined--,64.3460075288
3.29,--undefined--,65.9159156699
3.3000000000000003,--undefined--,65.9105277342
3.31,--undefined--,65.1601326029
3.3200000000000003,--undefined--,64.6950305786
3.33,--undefined--,64.7104901822
3.34,--undefined--,64.3554362649
3.35,--undefined--,63.0307223829
3.36,--undefined--,61.2853308106
3.37,17.2988541627,60.6364318306
3.38,17.4527661889,61.8411382894
3.39,17.4820239035,63.6745372085
3.4,17.3480486098,64.7733514169
3.41,16.9168548063,64.8643026755
3.42,16.5628236502,64.4375225208
3.43,16.3681109535,64.1671043108
3.44,16.1224728702,64.2785838011
3.45,16.0009712671,64.5854065625
3.46,16.1657777924,64.9836449912
3.47,16.4311054411,65.4430264128
3.48,16.6777139529,65.8249439277
3.49,16.8993303067,65.9672936286
3.5,17.1025902993,65.8230542463
3.5100000000000002,17.8287190983,65.4698121672
3.52,18.3332541899,65.0508117288
3.5300000000000002,18.899044214,64.6722241284
3.54,19.277806411,64.2294408135
3.5500000000000003,19.6074095488,63.3102266688
3.56,19.9547124554,61.3529361661
3.5700000000000003,20.024052033,57.8859751933
3.58,--undefined--,53.4015851991
3.59,--undefined--,52.2647278913
3.6,--undefined--,58.3870344228
3.61,--undefined--,66.0237755895
3.62,--undefined--,71.351458728
3.63,--undefined--,74.3925664458
3.64,--undefined--,75.3666885061
3.65,--undefined--,74.5592406143
3.66,--undefined--,72.4919679995
3.67,--undefined--,70.0425420842
3.68,--undefined--,68.1590453126
3.69,--undefined--,67.1636392027
3.7,--undefined--,66.6206190531
3.71,--undefined--,66.0134926978
3.72,--undefined--,65.1262845546
3.73,--undefined--,63.935716297
3.74,--undefined--,62.4564094007
3.75,--undefined--,60.6719160362
3.7600000000000002,--undefined--,58.531963764
3.77,--undefined--,55.9941449584
3.7800000000000002,--undefined--,53.0597429169
3.79,--undefined--,49.7813762922
3.8000000000000003,--undefined--,46.2425928855
3.81,--undefined--,42.5060803512
3.8200000000000003,--undefined--,38.6502338211
3.83,--undefined--,34.86268012
3.84,--undefined--,31.2856801697
3.85,--undefined--,27.9670821455
3.86,--undefined--,25.1708651366
3.87,--undefined--,23.015288726
3.88,--undefined--,21.0058552844
3.89,--undefined--,18.790321909
3.9,--undefined--,16.5558432407
3.91,--undefined--,14.5617292227
3.92,--undefined--,12.9976233311
3.93,--undefined--,11.90177552
3.94,--undefined--,10.9709335514
3.95,--undefined--,10.0202699814
3.96,--undefined--,9.40471514812
3.97,--undefined--,9.52638889303
3.98,--undefined--,10.1470152535
3.99,--undefined--,10.7060565304
4,--undefined--,10.8741233282
4.01,--undefined--,10.4417226078
4.0200000000000005,--undefined--,9.4905538674
4.03,--undefined--,9.47843022984
4.04,--undefined--,12.834971568
4.05,--undefined--,18.7096915017
4.0600000000000005,--undefined--,23.5887735775
4.07,--undefined--,26.1307579359
4.08,--undefined--,26.2988878803
4.09,--undefined--,24.4801941304
4.1,--undefined--,21.6451940029
4.11,--undefined--,19.8246381384
4.12,--undefined--,20.9764937202
4.13,--undefined--,24.2459093156
4.14,--undefined--,27.2725426842
4.15,--undefined--,29.0468936892
4.16,--undefined--,29.3826659328
4.17,--undefined--,28.3534678073
4.18,--undefined--,26.3266906762
4.19,--undefined--,23.9672581927
4.2,--undefined--,21.9058004291
4.21,--undefined--,20.3929671894
4.22,--undefined--,19.4576623703
4.23,--undefined--,19.1370001206
4.24,--undefined--,19.3319359179
4.25,--undefined--,19.7592624662
4.26,--undefined--,20.2609864838
4.2700000000000005,--undefined--,20.8640477716
4.28,--undefined--,21.4216612614
4.29,--undefined--,21.5957281279
4.3,--undefined--,21.2786598293
4.3100000000000005,--undefined--,20.7751806735
4.32,--undefined--,20.4745279783
4.33,--undefined--,20.3512859678
4.34,--undefined--,20.1730957116
4.3500000000000005,--undefined--,20.6464236856
4.36,--undefined--,23.579972705
4.37,--undefined--,29.053839625
4.38,--undefined--,34.6114880709
4.39,--undefined--,38.804241992
4.4,--undefined--,41.5404869269
4.41,--undefined--,43.2268322926
4.42,--undefined--,44.4022546947
4.43,--undefined--,45.3909023681
4.44,--undefined--,46.1299088413
4.45,--undefined--,46.2672088609
4.46,--undefined--,45.3557608793
4.47,--undefined--,43.2072883357
4.48,--undefined--,40.2160402201
4.49,--undefined--,37.0709415344
4.5,--undefined--,34.0283567343
4.51,--undefined--,31.1814710414
4.5200000000000005,--undefined--,29.2926058124
4.53,--undefined--,28.9926555767
4.54,--undefined--,29.788543966
4.55,--undefined--,30.9188986581
4.5600000000000005,--undefined--,31.841212138
4.57,--undefined--,32.0465832442
4.58,--undefined--,31.3493835646
4.59,--undefined--,30.0924716439
4.6000000000000005,--undefined--,28.7909443389
4.61,--undefined--,27.6617924034
4.62,--undefined--,26.6223679873
4.63,--undefined--,25.4186397942
4.64,--undefined--,23.781759183
4.65,--undefined--,21.8503676917
4.66,--undefined--,20.3352091542
4.67,--undefined--,20.2729880222
4.68,--undefined--,22.0823477502
4.69,--undefined--,24.4647955852
4.7,--undefined--,25.6826796648
4.71,--undefined--,25.0261627238
4.72,--undefined--,22.5457854709
4.73,--undefined--,19.0202256305
4.74,--undefined--,16.437314187
4.75,--undefined--,16.5341769423
4.76,--undefined--,17.9997512906
4.7700000000000005,--undefined--,18.5928818865
4.78,--undefined--,17.8600204253
4.79,--undefined--,16.6389041328
4.8,--undefined--,16.1018804256
4.8100000000000005,--undefined--,16.5455250621
4.82,--undefined--,17.561777188
4.83,--undefined--,18.8900694262
4.84,--undefined--,19.9469750203
4.8500000000000005,--undefined--,19.8954519357
4.86,--undefined--,18.634785536
4.87,--undefined--,17.4057953254
4.88,--undefined--,17.7901789053
4.89,--undefined--,19.3808212188
4.9,--undefined--,20.4473161086
4.91,--undefined--,20.4075668434
4.92,--undefined--,19.9125369512
4.93,--undefined--,19.7863094119
4.94,--undefined--,20.0043076307
4.95,--undefined--,19.9644901669
4.96,--undefined--,19.2242660673
4.97,--undefined--,17.7271759757
4.98,--undefined--,16.0112041705
4.99,--undefined--,14.8609801433
5,--undefined--,14.2056618744
5.01,--undefined--,13.212428136
5.0200000000000005,--undefined--,11.5772550291
5.03,--undefined--,9.81862168101
5.04,--undefined--,8.67098004365
5.05,--undefined--,8.4154929623
5.0600000000000005,--undefined--,9.00861579322
5.07,--undefined--,10.4360315699
5.08,--undefined--,12.4877376446
5.09,--undefined--,14.8250719465
5.1000000000000005,--undefined--,17.0145280209
5.11,--undefined--,18.5783224819
5.12,--undefined--,19.5431584801
5.13,--undefined--,20.4777616295
5.14,--undefined--,21.6278611663
5.15,--undefined--,22.551566601
5.16,--undefined--,22.8229088834
5.17,--undefined--,22.3849552596
5.18,--undefined--,21.4885053421
5.19,--undefined--,20.7076722701
5.2,--undefined--,20.5379817476
5.21,--undefined--,20.7344255611
5.22,--undefined--,20.5476319729
5.23,--undefined--,19.4983368449
5.24,--undefined--,17.6528926044
5.25,--undefined--,15.4517227463
5.26,--undefined--,13.3179752328
5.2700000000000005,--undefined--,11.4594799462
5.28,--undefined--,10.0681745199
5.29,--undefined--,9.24857013114
5.3,--undefined--,8.68794765291
5.3100000000000005,--undefined--,7.9836363131
5.32,--undefined--,7.38138606041
5.33,--undefined--,7.79499767089
5.34,--undefined--,9.48419492861
5.3500000000000005,--undefined--,11.4500526053
5.36,--undefined--,12.9105780171
5.37,--undefined--,13.8370843826
5.38,--undefined--,14.3789318128
5.39,--undefined--,14.9578990012
5.4,--undefined--,17.6397498327
5.41,--undefined--,25.0011836613
5.42,--undefined--,34.79934685
5.43,--undefined--,43.0316651377
5.44,--undefined--,49.424194659
5.45,--undefined--,55.3478696774
5.46,--undefined--,61.4864988572
5.47,15.6882692313,67.0424596832
5.48,16.3171695043,71.2171953179
5.49,17.762410542,74.0221557497
5.5,19.5488047611,75.8825110399
5.51,20.4747957225,77.2644652205
5.5200000000000005,21.0683666458,78.4906316506
5.53,21.9847110581,79.7158987934
5.54,22.6078328154,80.9687712059
5.55,22.7503232728,82.2311711666
5.5600000000000005,22.8685472583,83.5406946122
5.57,23.9960753407,84.8795049657
5.58,24.4005410838,85.9285047335
5.59,25.5940456917,86.1737622579
5.6000000000000005,26.0298150802,85.2883724884
5.61,26.2314153443,83.3530724359
5.62,24.7973074309,80.7851108522
5.63,24.4882856989,78.0049592378
5.64,24.5377945519,75.3025967
5.65,24.5749378674,73.2362501869
5.66,25.0546760738,72.3845429814
5.67,25.070349618,72.3996499661
5.68,25.0516574148,72.5490274931
5.69,24.9938697793,72.7465449756
5.7,24.9362184781,73.419179034
5.71,24.9719497325,75.0000866669
5.72,24.9887964573,77.3045211143
5.73,25.0033429047,79.560258083
5.74,24.9060129748,81.2660104381
5.75,24.6856760463,82.4577181535
5.76,24.6202768795,83.2830453254
5.7700000000000005,24.5849015523,83.7716716391
5.78,24.4489818366,84.04772704
5.79,24.3184807152,84.3641832567
