time,pitch,intensity
0.01,--undefined--,--undefined--
0.02,--undefined--,--undefined--
0.03,--undefined--,--undefined--
0.04,--undefined--,--undefined--
0.05,--undefined--,0.321468630581
0.06,--undefined--,0.381615740825
0.07,--undefined--,0.431216102723
0.08,--undefined--,0.475458502878
0.09,--undefined--,0.495952895751
0.1,--undefined--,0.49931508159
0.11,--undefined--,0.509482921315
0.12,--undefined--,0.526610331364
0.13,--undefined--,0.544327128082
0.14,--undefined--,0.564730154643
0.15,--undefined--,0.587201534534
0.16,--undefined--,0.602783658138
0.17,--undefined--,0.599553881156
0.18,--undefined--,0.589560483912
0.19,--undefined--,0.588343608632
0.2,--undefined--,0.591145056491
0.21,--undefined--,0.596250705192
0.22,--undefined--,0.60149728422
0.23,--undefined--,0.609196735204
0.24,--undefined--,0.618707197065
0.25,--undefined--,0.627154260373
0.26,--undefined--,0.645595234447
0.27,--undefined--,0.679077717121
0.28,--undefined--,0.720955964741
0.29,--undefined--,0.75595224867
0.3,--undefined--,0.76789670052
0.31,--undefined--,0.75987483265
0.32,--undefined--,0.748978927887
0.33,--undefined--,0.754802591154
0.34,--undefined--,0.784150484623
0.35000000000000003,0.63233074088,0.818236608948
0.36,0.639614680533,0.841578171965
0.37,0.652830832681,0.845893481742
0.38,0.668512989548,0.839400857176
0.39,0.682759798847,0.835380569159
0.4,0.690482898668,0.834123813803
0.41000000000000003,0.697155407976,0.837601483489
0.42,0.702254360228,0.844311093124
0.43,0.704567389432,0.846294152708
0.44,0.706589487897,0.848408716477
0.45,0.708282572572,0.852908638422
0.46,0.710452896144,0.855184618788
0.47000000000000003,0.713461941895,0.854181169149
0.48,0.715780995627,0.852555506462
0.49,0.717179389791,0.856170378446
0.5,0.716539122235,0.865219305595
0.51,0.715388543594,0.872527858061
0.52,0.713300647519,0.875260604452
0.53,0.710539056954,0.87619289844
0.54,0.706192715263,0.876716444307
0.55,0.699876550737,0.874866968602
0.56,0.687356742057,0.872851614325
0.5700000000000001,0.66567136091,0.873465013184
0.58,0.641554882954,0.872678605925
0.59,0.626042937185,0.868408538422
0.6,0.61560532886,0.862350364401
0.61,0.604533290244,0.860053225334
0.62,0.595009601115,0.864096718018
0.63,0.587911340241,0.866648091207
0.64,0.577162385626,0.864999095502
0.65,0.563982137747,0.863402829617
0.66,0.54955777895,0.862538494978
0.67,0.534720931181,0.862740700285
0.68,0.521293839682,0.864179572845
0.6900000000000001,0.511093430156,0.864709274261
0.7000000000000001,0.501905080237,0.861800686178
0.71,0.49095032984,0.858160262566
0.72,0.478326619652,0.857037299799
0.73,0.46606143965,0.857813848143
0.74,0.454790195739,0.860998391712
0.75,0.443953612825,0.864445149482
0.76,0.433175193799,0.864347343294
0.77,0.42116610981,0.859850122504
0.78,0.402737857283,0.851995775351
0.79,0.382251085665,0.846844122143
0.8,0.365479650015,0.845164536783
0.81,0.351542100324,0.844544348892
0.8200000000000001,0.33516314486,0.844743991052
0.8300000000000001,0.323682532168,0.841542722648
0.84,0.306935098199,0.835674852721
0.85,0.293079653535,0.829149073474
0.86,0.285197865543,0.823033750296
0.87,0.279444622797,0.819584274496
0.88,0.276223675643,0.818977601995
0.89,0.274707067004,0.815205375241
0.9,0.274839401298,0.808960294069
0.91,0.279561123102,0.806004247778
0.92,0.283985109709,0.795977639966
0.93,0.282890022647,0.772214539692
0.9400000000000001,--undefined--,0.749889348189
0.9500000000000001,--undefined--,0.736432857743
0.96,--undefined--,0.729008139465
0.97,--undefined--,0.732090658439
0.98,--undefined--,0.739210104642
0.99,--undefined--,0.735308262134
1,--undefined--,0.718972100364
1.01,--undefined--,0.704612664988
1.02,--undefined--,0.699215859066
1.03,--undefined--,0.694958547818
1.04,--undefined--,0.691304559382
1.05,--undefined--,0.692970997595
1.06,--undefined--,0.69261954704
1.07,--undefined--,0.68395725234
1.08,--undefined--,0.67168620317
1.09,--undefined--,0.6651159377
1.1,--undefined--,0.672860458166
1.11,--undefined--,0.686356175881
1.12,--undefined--,0.690898557752
1.1300000000000001,--undefined--,0.68206199856
1.1400000000000001,--undefined--,0.67332501496
1.1500000000000001,--undefined--,0.684143848234
1.16,--undefined--,0.707843009384
1.17,--undefined--,0.726942855578
1.18,--undefined--,0.748883078579
1.19,--undefined--,0.80674703172
1.2,--undefined--,0.851025182309
1.21,--undefined--,0.841016319985
1.22,--undefined--,0.794686564465
1.23,--undefined--,0.755838538082
1.24,--undefined--,0.730846105982
1.25,--undefined--,0.706069317707
1.26,--undefined--,0.687435387691
1.27,--undefined--,0.670837841977
1.28,--undefined--,0.662936735819
1.29,--undefined--,0.666860120111
1.3,--undefined--,0.670925622459
1.31,--undefined--,0.67257635845
1.32,--undefined--,0.6673743742
1.33,--undefined--,0.649005980053
1.34,--undefined--,0.63466258823
1.35,--undefined--,0.634919364827
1.36,--undefined--,0.627798113201
1.37,--undefined--,0.618918448773
1.3800000000000001,--undefined--,0.625968056885
1.3900000000000001,--undefined--,0.633953265929
1.4000000000000001,--undefined--,0.62099097823
1.41,--undefined--,0.593747857986
1.42,--undefined--,0.577471373011
1.43,--undefined--,0.581965630168
1.44,--undefined--,0.586690281333
1.45,--undefined--,0.591222415542
1.46,--undefined--,0.596524998701
1.47,--undefined--,0.590869275112
1.48,--undefined--,0.580719778371
1.49,--undefined--,0.573206985516
1.5,--undefined--,0.55982590236
1.51,--undefined--,0.541404489834
1.52,--undefined--,0.528873943112
1.53,--undefined--,0.546651692414
1.54,--undefined--,0.636501952857
1.55,--undefined--,0.73938686906
1.56,--undefined--,0.777169819832
1.57,--undefined--,0.748686447305
1.58,--undefined--,0.677622583015
1.59,--undefined--,0.621885736499
1.6,--undefined--,0.597128860149
1.61,--undefined--,0.589123467077
1.62,--undefined--,0.603394228945
1.6300000000000001,--undefined--,0.610417954833
1.6400000000000001,--undefined--,0.598161932009
1.6500000000000001,--undefined--,0.57395020871
1.6600000000000001,--undefined--,0.547268226145
1.67,--undefined--,0.524654958372
1.68,--undefined--,0.50485855653
1.69,--undefined--,0.479687985782
1.7,--undefined--,0.449063835285
1.71,--undefined--,0.426552658308
1.72,--undefined--,0.429111683639
1.73,--undefined--,0.443075663751
1.74,--undefined--,0.505893408148
1.75,--undefined--,0.69564629352
1.76,--undefined--,0.846822071022
1.77,--undefined--,0.93053564286
1.78,--undefined--,0.961710626121
1.79,0.4756744724,0.95858639785
1.8,0.494521270881,0.944197026509
1.81,0.511079656368,0.931742981159
1.82,0.518963682494,0.921867643141
1.83,0.524375689252,0.917997235003
1.84,0.528756942666,0.91758427578
1.85,0.532431936919,0.918057066686
1.86,0.536125249835,0.920743217168
1.87,0.53924234704,0.924127793892
1.8800000000000001,0.539648021123,0.925855547353
1.8900000000000001,0.53743819562,0.922064131561
1.9000000000000001,0.535235769751,0.912567234315
1.9100000000000001,0.535327026212,0.901585623616
1.92,0.536621730241,0.890611776271
1.93,0.536741207056,0.882917498852
1.94,0.534858961478,0.882155043916
1.95,0.532003743038,0.884765226881
1.96,0.529274917317,0.886987163029
1.97,0.526987830375,0.886500048789
1.98,0.524733394504,0.880346707491
1.99,0.522435014439,0.864325523949
2,0.521152454996,0.832639750758
2.0100000000000002,0.522394928529,0.788784322005
2.02,0.522032696546,0.757229939589
2.0300000000000002,0.519093441878,0.755496459282
2.04,0.517525760051,0.764975837543
2.05,0.516648817516,0.77393095478
2.06,0.517675863743,0.784744853191
2.07,0.518701612172,0.796936410975
2.08,0.51867554001,0.804601559245
2.09,0.517580476434,0.806258937199
2.1,0.515626498133,0.807530177131
2.11,0.514090185102,0.811786839466
2.12,0.511837722662,0.815779297841
2.13,0.509626354708,0.816345187719
2.14,0.508614315856,0.812724032814
2.15,0.506950915129,0.805377529111
2.16,0.501447261948,0.793748849729
2.17,0.489420063017,0.77359587627
2.18,0.46820954775,0.738992096552
2.19,0.447572689466,0.688545196144
2.2,--undefined--,0.632854732184
2.21,--undefined--,0.60114758759
2.22,--undefined--,0.601643853878
2.23,--undefined--,0.593174405104
2.24,--undefined--,0.569883511909
2.25,--undefined--,0.55128317155
2.2600000000000002,--undefined--,0.536216332555
2.27,--undefined--,0.526915311204
2.2800000000000002,--undefined--,0.553873825848
2.29,0.411832273911,0.626097838344
2.3000000000000003,0.412664866759,0.680618187084
2.31,0.413716037683,0.68975566637
2.32,0.398944332772,0.656796028297
2.33,--undefined--,0.596871067574
2.34,--undefined--,0.550353707096
2.35,--undefined--,0.553503867724
2.36,--undefined--,0.572681474348
2.37,--undefined--,0.587337506014
2.38,--undefined--,0.598575054594
2.39,--undefined--,0.606840281648
2.4,--undefined--,0.613155342078
2.41,--undefined--,0.620824899955
2.42,--undefined--,0.632655484837
2.43,--undefined--,0.642884487915
2.44,--undefined--,0.646218382575
2.45,--undefined--,0.645491163145
2.46,--undefined--,0.644412833991
2.47,--undefined--,0.649867078205
2.48,--undefined--,0.71303293507
2.49,0.662278488712,0.83253408632
2.5,0.666323895965,0.908699791274
2.5100000000000002,0.66121200193,0.944897566954
2.52,0.617498716499,0.963067167757
2.5300000000000002,0.580985965441,0.972228733422
2.54,0.567580488159,0.969161754588
2.5500000000000003,0.564127830636,0.957543042432
2.56,0.563042217554,0.946692361304
2.57,0.56086431784,0.940549642347
2.58,0.55704133787,0.936806610257
2.59,0.55399338081,0.934050198174
2.6,0.551773547772,0.931155202296
2.61,0.549339831269,0.927225903796
2.62,0.547566366194,0.923674857423
2.63,0.546210141481,0.921729854901
2.64,0.544306137225,0.921919721977
2.65,0.543621681129,0.922733175006
2.66,0.544506631956,0.921624850982
2.67,0.545578176069,0.920461141784
2.68,0.546583721896,0.92180787044
2.69,0.546949091386,0.924393653344
2.7,0.54521485349,0.930678526577
2.71,0.541356403282,0.943794955484
2.72,0.536714711294,0.956822250552
2.73,0.533047071936,0.960690205449
2.74,0.5314992333,0.957416188966
2.75,0.530690650692,0.958066052095
2.7600000000000002,0.530446425137,0.961272013902
2.77,0.532059883616,0.952530964382
2.7800000000000002,0.533783490941,0.923826689116
2.79,0.623504333692,0.879452571336
2.8000000000000003,0.68926462205,0.839632270567
2.81,0.705506433998,0.811285277735
2.82,0.715463146105,0.76966053417
2.83,--undefined--,0.708030246386
2.84,--undefined--,0.677568500837
2.85,--undefined--,0.747548954504
2.86,--undefined--,0.84271597571
2.87,--undefined--,0.907264706345
2.88,--undefined--,0.93830412263
2.89,--undefined--,0.945193093406
2.9,0.489174309809,0.944220038328
2.91,0.504333840766,0.943784496713
2.92,0.511202613026,0.939984735732
2.93,0.510277664898,0.933889860532
2.94,0.511658039799,0.929617247563
2.95,0.515110233726,0.925477906294
2.96,0.518647803568,0.920605380219
2.97,0.523247571723,0.916164154008
2.98,0.529594671591,0.912549396355
2.99,0.538209651072,0.909635794997
3,0.549247583488,0.908323814983
3.0100000000000002,0.561368872459,0.910577062459
3.02,0.57249039145,0.913095061166
3.0300000000000002,0.580760001305,0.912161426833
3.04,0.585723933516,0.907831961934
3.0500000000000003,0.58939981201,0.903708119905
3.06,0.593042164908,0.902671157533
3.0700000000000003,0.597046458589,0.901751109093
3.08,0.6003775865,0.897757814188
3.09,0.600574288206,0.891457273519
3.1,0.597434164605,0.887369567422
3.11,0.594135606891,0.889098383337
3.12,0.59367213076,0.88696976647
3.13,0.599823367854,0.868255760727
3.14,0.607022333636,0.839075415485
3.15,0.609611946727,0.821603395805
3.16,0.609859893501,0.824276528464
3.17,0.61132245928,0.837315223943
3.18,0.613760293269,0.851239255416
3.19,0.617086538664,0.860465237881
3.2,0.620727530449,0.864513943078
3.21,0.623283081908,0.866179069892
3.22,0.62485286259,0.867643513625
3.23,0.625867133934,0.867984041158
3.24,0.625775784239,0.868407824592
3.25,0.625074063262,0.871575176216
3.2600000000000002,0.625122221397,0.876923149249
3.27,0.624736404043,0.881862788732
3.2800000000000002,0.622150640646,0.883338790026
3.29,0.616580474138,0.878805284784
3.3000000000000003,0.610128447257,0.869152886287
3.31,0.605063244851,0.861486416494
3.3200000000000003,0.598893040263,0.862452905602
3.33,0.590369801094,0.864170420542
3.34,0.581352023762,0.856133209349
3.35,0.565203929753,0.841024650132
3.36,0.547103943656,0.81891736986
3.37,0.523335728523,0.783001407359
3.38,0.494035079779,0.741718892105
3.39,0.469325301016,0.714846956271
3.4,0.454970004765,0.708750693391
3.41,0.459669353405,0.717871885693
3.42,0.471714786628,0.73328586741
3.43,0.477208706227,0.749615865489
3.44,0.479670749039,0.765729676918
3.45,0.480942272183,0.783753348285
3.46,0.484005468401,0.818859480893
3.47,0.488640594533,0.878408296783
3.48,0.496067774954,0.929587332865
3.49,0.49744491997,0.949322294976
3.5,0.490393202005,0.947829130245
3.5100000000000002,0.48689036471,0.941470776305
3.52,0.485931998254,0.93006697565
3.5300000000000002,0.48620051299,0.916731914742
3.54,0.488690764914,0.910665427168
3.5500000000000003,0.491296342739,0.909316149942
3.56,0.492306239538,0.906038524979
3.5700000000000003,0.492943405819,0.88984501811
3.58,0.508212409223,0.845285825834
3.59,0.526121332318,0.772504575123
3.6,0.528929995881,0.696586007877
3.61,--undefined--,0.633800716339
3.62,--undefined--,0.574757079671
3.63,--undefined--,0.520704177394
3.64,--undefined--,0.47558681127
3.65,--undefined--,0.440186021089
3.66,--undefined--,0.416841549038
3.67,--undefined--,0.400774861923
3.68,--undefined--,0.383303511857
3.69,--undefined--,0.377881840041
3.7,--undefined--,0.386872580886
3.71,--undefined--,0.38926310052
3.72,--undefined--,0.390846961865
3.73,--undefined--,0.450701978536
3.74,--undefined--,0.569612434869
3.75,--undefined--,0.656638634105
3.7600000000000002,--undefined--,0.697009151863
3.77,--undefined--,0.700043808169
3.7800000000000002,--undefined--,0.695527572592
3.79,0.483383409309,0.736486545901
3.8000000000000003,0.500877750609,0.822477745292
3.81,0.518512973678,0.888428914092
3.8200000000000003,0.526976851389,0.920870103106
3.83,0.526703904573,0.928446550684
3.84,0.521618855926,0.923835870192
3.85,0.514023978512,0.915017690934
3.86,0.503616411704,0.901483057792
3.87,0.495147932906,0.882693981588
3.88,0.488957851667,0.863455177998
3.89,0.481643777864,0.850619064436
3.9,0.473722393352,0.840650882641
3.91,0.463833165863,0.82272775196
3.92,0.455415002548,0.799515889174
3.93,0.447557357588,0.778868957306
3.94,0.438797716631,0.763849761779
3.95,0.421060905408,0.754806606303
3.96,--undefined--,0.742903338477
3.97,--undefined--,0.720704901412
3.98,--undefined--,0.68030326933
3.99,--undefined--,0.615256616386
4,--undefined--,0.536244101478
4.01,--undefined--,0.474393680389
4.0200000000000005,--undefined--,0.428017817592
4.03,--undefined--,0.383696073489
4.04,--undefined--,0.366081719695
4.05,--undefined--,0.469380548622
4.0600000000000005,--undefined--,0.635448958103
4.07,--undefined--,0.749098964359
4.08,0.37822406686,0.817688117774
4.09,0.405834840775,0.861380498405
4.1,0.443568906283,0.895920558602
4.11,0.456362877988,0.919509056801
4.12,0.456496410267,0.92813140657
4.13,0.456048050282,0.923786290639
4.14,0.456512349394,0.912288146749
4.15,0.458704850488,0.901257115289
4.16,0.463093789552,0.894468128892
4.17,0.468359044895,0.890984642115
4.18,0.475192974675,0.890262420099
4.19,0.486582526304,0.892354133865
4.2,0.539890050853,0.897718687092
4.21,0.603250017755,0.909601181933
4.22,0.629930865012,0.928177541894
4.23,0.67306669941,0.944172737824
4.24,0.721796653536,0.946490255847
4.25,0.769525113474,0.928127948024
4.26,0.805630612178,0.881900434327
4.2700000000000005,0.826662858244,0.796785752907
4.28,--undefined--,0.663840750076
4.29,--undefined--,0.512097810131
4.3,--undefined--,0.437037038137
4.3100000000000005,--undefined--,0.434161469997
4.32,--undefined--,0.433911486258
4.33,--undefined--,0.420794474689
4.34,--undefined--,0.400323660582
4.3500000000000005,--undefined--,0.378141653566
4.36,--undefined--,0.368542144524
4.37,--undefined--,0.390427659343
4.38,--undefined--,0.495451506107
4.39,--undefined--,0.610136458147
4.4,--undefined--,0.675250963599
4.41,--undefined--,0.69944572689
4.42,--undefined--,0.701200415452
4.43,--undefined--,0.702220602342
4.44,--undefined--,0.706043947456
4.45,--undefined--,0.700677596649
4.46,--undefined--,0.688346498448
4.47,--undefined--,0.68020084131
4.48,--undefined--,0.677160408628
4.49,--undefined--,0.679718968075
4.5,--undefined--,0.684027075804
4.51,--undefined--,0.672097343701
4.5200000000000005,--undefined--,0.634944847704
4.53,--undefined--,0.582319177733
4.54,--undefined--,0.522510245988
4.55,--undefined--,0.441755096309
4.5600000000000005,--undefined--,0.333253520408
4.57,--undefined--,0.223138737232
4.58,--undefined--,0.152977655874
4.59,--undefined--,0.116616735934
4.6000000000000005,--undefined--,0.100813143907
4.61,--undefined--,0.106642623777
4.62,--undefined--,0.122199011308
4.63,--undefined--,0.1269263177
4.64,--undefined--,0.113068564629
4.65,--undefined--,0.0893227513752
4.66,--undefined--,0.0671213064921
4.67,--undefined--,0.0498548416942
4.68,--undefined--,0.039786440703
4.69,--undefined--,0.0338255812004
4.7,--undefined--,0.0247716016125
4.71,--undefined--,0.0202113881425
4.72,--undefined--,0.0368952362435
4.73,--undefined--,0.0633509812431
4.74,--undefined--,0.0790274123665
4.75,--undefined--,0.0804059181271
4.76,--undefined--,0.0782793203955
4.7700000000000005,--undefined--,0.0823477016182
4.78,--undefined--,0.0915258932382
4.79,--undefined--,0.0941493348674
4.8,--undefined--,0.0979201668542
4.8100000000000005,--undefined--,0.116459185223
4.82,--undefined--,0.13870910549
4.83,--undefined--,0.150452604789
4.84,--undefined--,0.148050557592
4.8500000000000005,--undefined--,0.138898094034
4.86,--undefined--,0.151188574777
4.87,--undefined--,0.182513531474
4.88,--undefined--,0.199532020122
4.89,--undefined--,0.209904644803
4.9,--undefined--,0.235278965628
4.91,--undefined--,0.264342044277
4.92,--undefined--,0.283022802197
4.93,--undefined--,0.295611150348
4.94,--undefined--,0.310531494062
4.95,--undefined--,0.336020220933
4.96,--undefined--,0.37850460425
4.97,--undefined--,0.435719571783
4.98,--undefined--,0.496984259967
4.99,--undefined--,0.543699966697
5,--undefined--,0.567552013966
5.01,--undefined--,0.574417075779
5.0200000000000005,--undefined--,0.583415610254
5.03,--undefined--,0.607150320467
5.04,--undefined--,0.625710086604
5.05,--undefined--,0.6242679025
5.0600000000000005,--undefined--,0.606783182573
5.07,--undefined--,0.591436208741
5.08,--undefined--,0.59429953773
5.09,--undefined--,0.611290671998
5.1000000000000005,--undefined--,0.644428212323
5.11,--undefined--,0.677860900928
5.12,--undefined--,0.684722759706
5.13,--undefined--,0.676997439406
5.14,--undefined--,0.691064854778
5.15,--undefined--,0.720425499156
5.16,--undefined--,0.734121532186
5.17,--undefined--,0.725342888637
5.18,--undefined--,0.706835164968
5.19,--undefined--,0.701213219394
5.2,--undefined--,0.716230680591
5.21,--undefined--,0.742736946511
5.22,--undefined--,0.773176227761
5.23,--undefined--,0.79334044468
5.24,--undefined--,0.798711852502
5.25,--undefined--,0.794047670131
5.26,--undefined--,0.79179057168
5.2700000000000005,--undefined--,0.81469782248
5.28,0.510132077113,0.861809370632
5.29,0.514011835609,0.895759658412
5.3,0.524548997521,0.908001565439
5.3100000000000005,0.542721556979,0.904312368686
5.32,0.564803000894,0.904375546127
5.33,0.57297465894,0.925240273147
5.34,0.602403610463,0.937804548468
5.3500000000000005,0.628381160855,0.928373726056
5.36,0.640613310448,0.914846252582
5.37,0.6572597286,0.916972619324
5.38,0.666781080724,0.932178255105
5.39,0.674499523812,0.947543059885
5.4,0.683808079038,0.95509221569
5.41,0.69037742174,0.948817380442
5.42,0.703396808791,0.935547653885
5.43,0.704795918151,0.932701464215
5.44,0.702022824153,0.934495289902
5.45,0.712628823063,0.924513590883
5.46,0.728155572538,0.925314245157
5.47,0.733304032691,0.942861053572
5.48,0.732982638339,0.943935367389
5.49,0.72756988076,0.93127342
5.5,0.728060890311,0.931828949192
5.51,0.72853687541,0.952422909647
5.5200000000000005,0.72390158324,0.962979417923
5.53,0.717064888824,0.954310330409
5.54,0.717871667238,0.941235678263
5.55,0.726493922529,0.931001109297
