time,pitch,intensity
0.01,--undefined--,--undefined--
0.02,--undefined--,--undefined--
0.03,--undefined--,--undefined--
0.04,--undefined--,--undefined--
0.05,--undefined--,36.1443397524
0.06,--undefined--,45.3542004073
0.07,14.7598524756,53.59941895
0.08,14.4220668232,59.0530056143
0.09,13.7628238072,62.0459989103
0.1,13.1655942168,63.8774149355
0.11,12.9157809382,65.5580528312
0.12,12.8552422214,66.8818728904
0.13,12.8229739765,67.5117951229
0.14,12.7722540128,68.2047489776
0.15,12.5935885503,69.4421372356
0.16,12.4188913696,70.3497008573
0.17,12.2452556975,70.274785072
0.18,12.0056169591,69.4080465556
0.19,11.8350086754,68.0461671217
0.2,11.7203544166,66.0669013166
0.21,11.5296688655,64.1081656584
0.22,11.474167505,63.6722715524
0.23,11.5152779196,64.0857187968
0.24,11.6558702785,64.2813954531
0.25,12.1957510125,64.4082173744
0.26,12.6514668345,64.5432937251
0.27,13.3741526581,64.8086836556
0.28,13.9579350105,65.8760757311
0.29,14.3127747329,67.9490293835
0.3,14.6903599361,71.0333603228
0.31,14.9389294063,74.4703015868
0.32,15.1460619296,77.3293727312
0.33,15.421695507,79.7624739818
0.34,15.6325776344,81.8167253102
0.35000000000000003,15.7853815909,83.2526449866
0.36,16.0070976316,84.1698471486
0.37,16.3051861916,84.6343475046
0.38,16.5815885025,84.6222707942
0.39,16.809681017,84.3264292868
0.4,17.0444194775,84.153816137
0.41000000000000003,17.365353777,84.247474629
0.42,17.7440120437,84.3567813569
0.43,18.197823867,84.2686106786
0.44,18.6469869835,84.3410303894
0.45,18.937209326,84.5065203962
0.46,19.1939558883,84.1974923945
0.47000000000000003,19.5545089066,83.277086402
0.48,19.9153776672,82.0151904546
0.49,20.2078396789,81.0537774038
0.5,20.5027227398,80.636429733
0.51,20.8371896696,80.5078956399
0.52,21.2819028101,80.2220666039
0.53,21.8755856996,79.5739246642
0.54,22.441520304,78.8966686742
0.55,22.9074348071,78.3533276776
0.56,23.554318367,78.0172098843
0.5700000000000001,24.3007551764,78.0604933239
0.58,25.2441125857,77.9982013937
0.59,26.1667546774,77.5033998866
0.6,26.8765821483,76.6887460527
0.61,27.9613791962,75.6444445899
0.62,29.0157728442,74.7139952713
0.63,29.9669899413,73.7999980523
0.64,30.9066657118,72.7173669398
0.65,31.7772764371,71.7671886209
0.66,32.4661366971,70.7783567759
0.67,33.3966056382,69.4329194065
0.68,33.8714418625,68.359097251
0.6900000000000001,33.6065106864,67.9220507598
0.7000000000000001,33.0357718778,67.5710277569
0.71,31.8566434774,67.1505952256
0.72,30.3421210391,67.018383152
0.73,28.5894204075,66.6877097446
0.74,26.6027810379,65.6221667665
0.75,23.4490284871,64.3109915674
0.76,20.2400983178,62.7714234617
0.77,17.9495864939,60.3315110236
0.78,15.6081971278,57.3305756042
0.79,13.7155831158,54.7081377571
0.8,12.1186382663,53.4684168872
0.81,11.4218798101,53.7478041673
0.8200000000000001,11.8548550243,55.1655447744
0.8300000000000001,12.3841947982,57.7422699739
0.84,12.764752522,60.3787047081
0.85,13.0027071723,62.1841309367
0.86,12.9373981277,63.6646436328
0.87,12.6905392586,65.3051289818
0.88,12.2839483444,66.8258812611
0.89,12.045514721,68.0413516527
0.9,12.037483501,68.6173754066
0.91,11.9959990902,67.6152589929
0.92,11.8297852097,63.709878866
0.93,--undefined--,55.9394234759
0.9400000000000001,--undefined--,44.9637573542
0.9500000000000001,--undefined--,34.2818214457
0.96,--undefined--,27.589588999
0.97,--undefined--,26.3670222145
0.98,--undefined--,33.6123036497
0.99,--undefined--,42.9498122544
1,--undefined--,48.6035702066
1.01,--undefined--,51.5471239083
1.02,--undefined--,53.479050997
1.03,--undefined--,55.1110273666
1.04,--undefined--,56.4538354704
1.05,--undefined--,57.3922974199
1.06,--undefined--,57.9905887284
1.07,--undefined--,58.849648321
1.08,--undefined--,60.3093554144
1.09,--undefined--,62.2647114888
1.1,--undefined--,63.69059558
1.11,--undefined--,62.937123384
1.12,--undefined--,59.3457072038
1.1300000000000001,--undefined--,52.7967777441
1.1400000000000001,--undefined--,43.6659187979
1.1500000000000001,--undefined--,36.3654665019
1.16,--undefined--,35.8052840808
1.17,--undefined--,35.6228733444
1.18,--undefined--,34.3441900287
1.19,--undefined--,32.8506235041
1.2,--undefined--,32.0024737681
1.21,--undefined--,32.8382553507
1.22,--undefined--,34.4535308323
1.23,--undefined--,35.5319974789
1.24,--undefined--,35.7392482483
1.25,--undefined--,37.8901576294
1.26,--undefined--,48.6646350285
1.27,13.545908908,60.7638210981
1.28,13.652409985,67.8527535938
1.29,13.723834672,70.7270837733
1.3,13.8538314443,71.7793890868
1.31,14.2424467244,72.98870339
1.32,14.8864989265,74.0984498282
1.33,15.5978033532,74.5813226164
1.34,16.5120609647,75.0262091727
1.35,17.544941467,76.0212456552
1.36,18.7493563381,77.0483853621
1.37,20.0455628095,77.5770758272
1.3800000000000001,21.5472203951,77.5700706943
1.3900000000000001,22.8216015992,77.1946514327
1.4000000000000001,23.8015339815,76.6494836217
1.41,24.8991452158,75.9056109391
1.42,26.0347277676,74.8265576499
1.43,27.1078822572,73.7725208254
1.44,28.1442194551,73.6968093453
1.45,28.9550787861,74.4705184671
1.46,29.5274224777,74.9326747104
1.47,30.0596364056,74.5776951791
1.48,30.424852311,73.4970457604
1.49,30.3607407753,72.4960260286
1.5,29.8873810268,72.7530558043
1.51,29.1618908779,73.6557432499
1.52,27.5707017695,73.013966209
1.53,24.7768514782,69.1511979465
1.54,22.5076675817,61.7502636715
1.55,--undefined--,53.5754144153
1.56,--undefined--,50.5980888653
1.57,--undefined--,50.8789908799
1.58,--undefined--,50.021412578
1.59,--undefined--,48.5290140562
1.6,--undefined--,47.9987226221
1.61,--undefined--,47.7332812599
1.62,--undefined--,47.4752206884
1.6300000000000001,--undefined--,48.5627799707
1.6400000000000001,--undefined--,51.4360599838
1.6500000000000001,--undefined--,52.6452398761
1.6600000000000001,--undefined--,50.9767664636
1.67,--undefined--,50.5851903508
1.68,--undefined--,53.8073232628
1.69,--undefined--,56.3757383562
1.7,--undefined--,58.4506467629
1.71,--undefined--,65.3025168323
1.72,16.4579433837,74.25206912
1.73,15.9863067644,79.5432804461
1.74,14.6657035825,81.3805549338
1.75,13.414852346,81.3214557705
1.76,12.6382390312,80.6529833213
1.77,12.2787666109,79.7700914412
1.78,12.1818989968,78.8115306238
1.79,12.1847079996,78.2483153527
1.8,12.205113282,78.3833397826
1.81,12.2342271296,78.4912383775
1.82,12.3972561636,77.788067595
1.83,12.8697958971,76.3172750464
1.84,13.3587520567,74.8486645624
1.85,13.7000124203,73.8743259821
1.86,14.0501671961,73.0037307077
1.87,14.6056411939,71.9695845341
1.8800000000000001,15.1833739543,70.968930144
1.8900000000000001,16.1089666389,70.0342437273
1.9000000000000001,17.5816674109,69.0881780724
1.9100000000000001,18.7568482569,68.3254300751
1.92,20.1920905264,68.1024825136
1.93,21.6962031944,68.3183209481
1.94,22.7911465313,68.4831566603
1.95,23.9916072185,68.451360143
1.96,25.198364104,68.3042174161
1.97,26.1352274521,68.0215080259
1.98,26.807494488,67.6174269306
1.99,27.1426662819,67.5948241825
2,26.9029632399,68.2771881942
2.0100000000000002,26.1214668941,68.4649713809
2.02,24.7157656309,66.7924770648
2.0300000000000002,23.0886019476,62.5975620238
2.04,--undefined--,57.0185034658
2.05,--undefined--,54.055625486
2.06,--undefined--,52.4593614148
2.07,--undefined--,49.5128924699
2.08,--undefined--,51.6593223219
2.09,13.4496350783,59.847887295
2.1,12.6411419699,65.9475682876
2.11,11.5263382383,68.4848530761
2.12,10.8969220149,67.9303666929
2.13,10.4513237152,65.3493490916
2.14,9.91147947744,62.0101723378
2.15,9.24691891803,58.1926805325
2.16,--undefined--,52.549632313
2.17,--undefined--,43.4950887582
2.18,--undefined--,31.4120113885
2.19,--undefined--,20.9854182867
2.2,--undefined--,17.7856912847
2.21,--undefined--,19.0028094613
2.22,--undefined--,18.8311682637
2.23,--undefined--,17.150231168
2.24,--undefined--,15.4343786614
2.25,--undefined--,14.5646010617
2.2600000000000002,--undefined--,14.3780440413
2.27,--undefined--,13.4746488731
2.2800000000000002,--undefined--,10.5467921967
2.29,--undefined--,9.41552325808
2.3000000000000003,--undefined--,24.7237989461
2.31,--undefined--,39.6786608655
2.32,--undefined--,52.1896153458
2.33,15.5719493514,64.717079155
2.34,15.0718946312,73.7350284203
2.35,14.8640410594,79.3394671515
2.36,15.2203776203,83.2923614327
2.37,15.8412608561,85.9147249546
2.38,16.5824050973,86.6314565241
2.39,17.3804282653,85.6715033217
2.4,18.499914728,84.2232246843
2.41,19.698882952,83.3523938648
2.42,20.1986868203,81.7956412395
2.43,20.0273293031,77.5803983285
2.44,20.1331823286,70.9547171026
2.45,20.3057720479,65.0862679264
2.46,20.3619659591,62.7669657512
2.47,20.6980198302,62.555839025
2.48,22.1110559881,62.789503188
2.49,22.8364757292,63.4276469596
2.5,23.5785853662,65.8472418936
2.5100000000000002,24.2178090334,69.0309324499
2.52,24.0632638658,71.2693020989
2.5300000000000002,23.563277058,73.1337535806
2.54,23.094353185,74.8879961703
2.5500000000000003,22.6978131331,76.5314469647
2.56,22.3301546518,78.5833375095
2.57,22.0449055202,80.1435847676
2.58,21.7606095957,80.1063444171
2.59,21.3078720346,78.6443311275
2.6,20.6221653176,76.280604478
2.61,19.9000211209,72.5946205344
2.62,18.9512844881,67.1108633672
2.63,17.6076119821,60.7885413074
2.64,16.4136699148,55.239823503
2.65,15.8654026608,52.7263299626
2.66,14.8549733538,53.9048133412
2.67,13.5629984688,55.9463219701
2.68,12.4406048209,58.8144733301
2.69,11.4996484509,63.421416103
2.7,10.7568520219,68.008494815
2.71,10.461909845,70.908004191
2.72,10.4726622784,72.4382676772
2.73,10.5698806948,73.1627906172
2.74,10.6554039797,73.3104179765
2.75,10.6847217792,73.2386732947
2.7600000000000002,10.5842842785,73.1131107807
2.77,10.360569897,72.511862129
2.7800000000000002,10.0574993642,70.7372918269
2.79,9.76768745956,67.3314263512
2.8000000000000003,9.56272624383,62.6395156269
2.81,9.32207845066,57.5380181028
2.82,8.23621101945,51.5645613115
2.83,--undefined--,44.13959727
2.84,--undefined--,38.6342356168
2.85,--undefined--,43.2619460705
2.86,--undefined--,51.9444019758
2.87,--undefined--,56.652726968
2.88,--undefined--,56.7836125332
2.89,--undefined--,52.9686216562
2.9,--undefined--,45.9777696384
2.91,--undefined--,36.3501773289
2.92,--undefined--,27.0109711963
2.93,--undefined--,29.8465111881
2.94,--undefined--,41.2265774031
2.95,13.4060257933,49.0964055587
2.96,12.1334089861,54.194833422
2.97,10.5863522844,57.2054907025
2.98,9.83747106886,58.0175265262
2.99,9.10511544315,56.8996056327
3,8.37957692931,54.7189610647
3.0100000000000002,8.02592661744,52.9754475902
3.02,7.89929307483,52.4510162644
3.0300000000000002,7.85896399128,52.322862319
3.04,7.84175019547,51.4070865832
3.0500000000000003,--undefined--,48.8682548167
3.06,--undefined--,44.4051843592
3.0700000000000003,--undefined--,37.667843874
3.08,--undefined--,28.7247452572
3.09,--undefined--,20.6488763138
3.1,--undefined--,17.3459043448
3.11,--undefined--,16.6724419834
3.12,--undefined--,16.5175620374
3.13,--undefined--,17.8213925656
3.14,--undefined--,23.2650321743
3.15,--undefined--,40.3887010926
3.16,--undefined--,58.8847710503
3.17,--undefined--,70.6393335944
3.18,14.8266782492,77.6860353344
3.19,14.8368066545,82.0644509927
3.2,15.0655360616,84.7413148771
3.21,15.5303024445,86.1368947881
3.22,16.6494168654,86.9459313808
3.23,17.6734499052,87.4084338637
3.24,18.7619131862,87.2792034072
3.25,19.9072644626,86.9336747059
3.2600000000000002,21.45912327,87.1064436035
3.27,22.7340730477,87.5193066782
3.2800000000000002,24.5022934481,87.3304291565
3.29,26.2437893175,86.5711366333
3.3000000000000003,27.5248217984,85.604714524
3.31,29.5308125273,84.6167890431
3.3200000000000003,31.9167862113,83.8532569817
3.33,34.3375777772,83.2704759101
3.34,36.1552239381,82.470562131
3.35,37.3766984766,81.2335460149
3.36,38.1816899306,79.543715177
3.37,38.417579554,77.6525079296
3.38,38.0249137049,76.3074135592
3.39,37.4342981151,75.7900460369
3.4,36.8522275615,75.2055948762
3.41,35.6409553371,73.2427078722
3.42,33.3822523624,68.6516164754
3.43,--undefined--,61.8473686435
3.44,--undefined--,57.4685022828
3.45,--undefined--,57.8676059437
3.46,--undefined--,59.0160260287
3.47,--undefined--,60.9645924949
3.48,--undefined--,63.3703921982
3.49,--undefined--,64.7085969864
3.5,--undefined--,64.8479443525
3.5100000000000002,--undefined--,65.0454120687
3.52,--undefined--,65.9261739444
3.5300000000000002,--undefined--,66.9674807897
3.54,--undefined--,67.3813776255
3.5500000000000003,--undefined--,66.7903939256
3.56,--undefined--,65.8853582927
3.5700000000000003,--undefined--,64.9942804869
3.58,--undefined--,63.6737283905
3.59,--undefined--,62.9959328759
3.6,--undefined--,63.3352692481
3.61,--undefined--,63.4029064282
3.62,--undefined--,62.764493299
3.63,--undefined--,61.175102861
3.64,--undefined--,58.6660704886
3.65,--undefined--,55.5999518114
3.66,--undefined--,51.6458361332
3.67,--undefined--,46.1830479486
3.68,--undefined--,39.965644536
3.69,--undefined--,35.4216377746
3.7,--undefined--,33.1738440078
3.71,--undefined--,32.497490076
3.72,--undefined--,33.1217453252
3.73,--undefined--,34.720946964
3.74,--undefined--,37.4553926097
3.75,--undefined--,39.452471877
3.7600000000000002,--undefined--,38.9106597682
3.77,--undefined--,36.7127258789
3.7800000000000002,--undefined--,35.3309180864
3.79,--undefined--,35.4186390581
3.8000000000000003,--undefined--,35.3152737319
3.81,--undefined--,34.654526123
3.8200000000000003,--undefined--,34.7292550303
3.83,--undefined--,34.8662106085
3.84,--undefined--,34.2908783713
3.85,--undefined--,34.2879048468
3.86,--undefined--,35.3956345615
3.87,--undefined--,35.6853192069
3.88,--undefined--,34.8863351404
3.89,--undefined--,33.8462773239
3.9,--undefined--,32.8372348391
3.91,--undefined--,32.846597644
3.92,--undefined--,33.7027522086
3.93,--undefined--,34.7662745607
3.94,--undefined--,36.2382351788
3.95,--undefined--,37.612558175
3.96,--undefined--,38.3815225349
3.97,--undefined--,38.4180522486
3.98,--undefined--,37.0995167952
3.99,--undefined--,33.9797704437
4,--undefined--,30.7954694831
4.01,--undefined--,32.3226822577
4.0200000000000005,--undefined--,39.606884849
4.03,49.6153538299,45.6427240859
4.04,51.0488935089,47.8577828612
4.05,52.2410888844,47.4890166171
4.0600000000000005,52.4463597722,47.3314176818
4.07,52.4027322648,49.1307402463
4.08,51.9212911248,51.7030432164
4.09,--undefined--,53.2727060494
4.1,--undefined--,53.1765699255
4.11,--undefined--,53.4091121647
4.12,--undefined--,56.3950193484
4.13,--undefined--,59.7094560543
4.14,--undefined--,60.2588971969
4.15,13.4678127663,60.2460832035
4.16,14.1660149593,66.4828211259
4.17,14.9580783478,74.7720730729
4.18,15.5822832718,80.4902415327
4.19,16.0350006329,84.1271176922
4.2,16.3272182461,86.2256417162
4.21,16.4774688738,86.9448682913
4.22,16.6109948116,86.7373866323
4.23,16.8689241473,86.303206153
4.24,17.2066664728,86.2632765852
4.25,17.4549649135,86.6530791726
4.26,17.7336610653,87.0034548835
4.2700000000000005,18.2490560637,87.7238717781
4.28,18.6793227222,88.9860943281
4.29,19.0381328335,89.6638397522
4.3,19.3268730327,89.554968102
4.3100000000000005,19.4640196066,89.3050744056
4.32,19.5189173959,89.0620890005
4.33,19.5273054251,88.8341455878
4.34,19.3513768888,88.8378118685
4.3500000000000005,19.0987068576,89.109267542
4.36,18.9739130381,88.8035680068
4.37,18.8899826104,86.8991467946
4.38,18.3067757315,82.9030883526
4.39,17.987864393,77.0880758377
4.4,18.5787323257,70.1511772952
4.41,19.1487604642,62.8511621325
4.42,19.2062606761,57.4026946498
4.43,19.0999243884,54.4011121192
4.44,19.065958842,51.5937205585
4.45,19.2596489312,49.0710156439
4.46,--undefined--,49.6855814718
4.47,--undefined--,53.5507301487
4.48,--undefined--,55.8346683659
4.49,--undefined--,56.3011281001
4.5,--undefined--,57.1183833142
4.51,--undefined--,57.1978501613
4.5200000000000005,--undefined--,55.9932471433
4.53,21.689798501,60.0563371229
4.54,21.9762968989,70.53062557
4.55,22.0680501379,78.4059998241
4.5600000000000005,21.72056116,82.9399661076
4.57,20.9573927398,85.4546397721
4.58,20.333066224,86.9288178285
4.59,20.0369747808,87.6118165699
4.6000000000000005,19.7401979362,87.6980030063
4.61,19.4024140035,87.65065603
4.62,19.2220007001,87.4297255218
4.63,19.1933419811,86.4857798227
4.64,19.1842560289,84.8437750044
4.65,19.0618629911,83.4710526541
4.66,18.8168897452,83.1285397558
4.67,18.5539234364,83.4082852963
4.68,18.4116381729,83.3294905984
4.69,18.383844949,82.2945219165
4.7,18.3367264384,80.2205796847
4.71,18.2613339278,77.2743499025
4.72,18.1843114111,74.6475667675
4.73,18.3040256884,74.0213249453
4.74,18.4589109252,75.0870311618
4.75,18.4132944919,76.3829777641
4.76,18.2729449661,77.1594977324
4.7700000000000005,18.1486029252,77.4672963809
4.78,18.0797316675,77.5936692846
4.79,18.0134134653,77.5610704655
4.8,17.8791337287,77.2066479471
4.8100000000000005,17.7792507656,76.7234012342
4.82,17.7210830249,76.4707502882
4.83,17.5945866743,76.3323558763
4.84,17.4134733614,76.0026428792
4.8500000000000005,17.2913040749,75.4419996626
4.86,17.2799064298,74.6725365462
4.87,17.298169967,73.4367118439
4.88,17.2461240669,71.6457987798
4.89,16.8910866003,69.5084134073
4.9,15.9526680923,66.9070688236
4.91,14.6883735763,63.3066814054
4.92,12.9276593177,58.5082634598
4.93,11.9040975821,54.1782915226
4.94,11.3502627458,51.2774564843
4.95,--undefined--,48.0107713113
4.96,--undefined--,47.8763857636
4.97,--undefined--,57.6921990211
4.98,15.2146324412,69.8966453878
4.99,15.5943587525,77.6040555966
5,15.9512492752,81.3503779913
5.01,16.0819776358,82.8241574118
5.0200000000000005,16.2208045494,83.5480976262
5.03,16.4818509062,84.2343954032
5.04,16.9589038518,84.8815665584
5.05,17.5045348534,85.1153521973
5.0600000000000005,17.9556120495,85.1173515044
5.07,18.2944480311,85.7772258944
5.08,18.6869119021,87.1253831797
5.09,19.2543226355,88.0025785047
5.1000000000000005,20.2245684004,87.4887200118
5.11,21.5113162261,85.6182101471
5.12,22.0296287256,83.4316532055
5.13,21.6762340186,81.4920067989
5.14,21.0887407549,78.6168921343
5.15,20.0586420372,74.1496463697
5.16,--undefined--,69.4830708587
5.17,--undefined--,67.0596147466
5.18,--undefined--,66.8633169778
5.19,--undefined--,67.5281427344
5.2,--undefined--,68.8949022311
5.21,--undefined--,70.2561031197
5.22,--undefined--,70.9414891008
5.23,--undefined--,70.5178222882
5.24,--undefined--,68.9303725006
5.25,--undefined--,67.0427751339
5.26,--undefined--,65.5060567798
5.2700000000000005,--undefined--,63.7774894971
5.28,--undefined--,61.4040681061
5.29,--undefined--,59.2428412967
5.3,--undefined--,58.6639540666
5.3100000000000005,--undefined--,58.8791125935
5.32,--undefined--,56.8945265949
5.33,--undefined--,51.118034222
5.34,--undefined--,41.8983906989
5.3500000000000005,--undefined--,34.7469081705
5.36,--undefined--,40.2270922515
5.37,--undefined--,52.1773308685
5.38,--undefined--,65.802575209
5.39,25.4206476455,76.6537133667
5.4,25.2258919449,83.0614314118
5.41,24.8259656649,85.6108789289
5.42,24.49611195,85.7868902498
5.43,24.4572999751,85.3460873424
5.44,24.6074475574,85.2027629752
5.45,24.8327894086,85.4307509942
5.46,25.1583582582,85.7022976543
5.47,25.6178481042,85.4441383681
5.48,26.2818163714,84.2822837393
5.49,27.1737362878,82.5144939577
5.5,27.8867239476,81.1531285754
5.51,28.2771586585,80.7275041231
5.5200000000000005,28.5503632863,80.9037060951
5.53,28.8640012665,81.1048893787
5.54,29.3561313026,80.8746773291
5.55,30.0672479144,80.7240057093
5.5600000000000005,30.8296495772,81.0583690044
5.57,31.4496983082,81.1389038242
5.58,31.8786003087,80.4814518317
5.59,32.2236987954,79.1240544346
5.6000000000000005,32.6110503206,77.373224121
5.61,33.0519371228,75.5671758977
5.62,33.5513718163,73.8530977446
5.63,33.9527507207,72.5466198629
5.64,34.1993569259,71.6593489862
5.65,34.3317765177,70.6522988182
5.66,34.3528209247,69.5239693263
5.67,34.3136906869,68.5939904327
5.68,34.236656249,67.5926091005
5.69,34.0938418478,66.1039170847
5.7,33.7645682811,63.7807998803
5.71,33.040793381,60.4257051817
5.72,31.8308907994,55.9187580018
5.73,--undefined--,49.6914639152
5.74,--undefined--,41.1981080625
5.75,--undefined--,32.4017646937
5.76,--undefined--,29.7503440186
5.7700000000000005,--undefined--,30.411689363
5.78,--undefined--,28.1651033705
5.79,--undefined--,22.891197728
