time,pitch,intensity
0.01,--undefined--,--undefined--
0.02,--undefined--,--undefined--
0.03,--undefined--,--undefined--
0.04,--undefined--,--undefined--
0.05,--undefined--,20.8880079943
0.06,--undefined--,18.5239264375
0.07,--undefined--,17.2857374065
0.08,--undefined--,22.7104500399
0.09,--undefined--,40.4865293623
0.1,--undefined--,55.3253487318
0.11,44.7652099486,65.8496388727
0.12,49.2077019253,74.8015553488
0.13,50.5147564722,81.4316784565
0.14,51.5754308985,85.0791850257
0.15,53.1287846037,87.3306934362
0.16,54.9313506843,89.5213171496
0.17,56.6693465703,90.8185974972
0.18,58.4756285207,90.0906221635
0.19,60.5304440699,87.1141844471
0.2,62.5505309085,83.1469068769
0.21,63.7622779936,79.6768190495
0.22,64.2114339942,75.4218268098
0.23,65.0556910208,70.7850814448
0.24,67.3056633821,71.6200912052
0.25,69.6991574641,76.0552683266
0.26,71.1066434937,79.8805568657
0.27,72.1825349786,82.4944212281
0.28,73.0183723353,84.0594558558
0.29,73.6291935733,84.8743953035
0.3,73.9532322326,85.1095290022
0.31,73.8993230223,84.6583296915
0.32,73.6341031585,83.3297636121
0.33,73.338796756,81.1644165443
0.34,72.9741772963,77.8084022097
0.35000000000000003,72.3740651408,72.1339474425
0.36,71.8268157202,63.4171810376
0.37,71.2366590983,54.5436158883
0.38,68.8167524681,54.9215108325
0.39,66.8277054751,63.0070535134
0.4,67.7815086834,71.7088382264
0.41000000000000003,68.952873778,77.5720692126
0.42,70.2438948445,79.8975308506
0.43,70.9661655167,79.0830054308
0.44,70.6911932624,75.8813977185
0.45,68.832695526,71.0718084719
0.46,67.0217238244,66.1700945536
0.47000000000000003,--undefined--,65.5314997309
0.48,--undefined--,68.9552022215
0.49,--undefined--,73.0761726332
0.5,--undefined--,75.8732417819
0.51,--undefined--,75.9577476312
0.52,--undefined--,74.2648099965
0.53,--undefined--,72.1344722813
0.54,--undefined--,68.9332408645
0.55,--undefined--,63.6411566085
0.56,--undefined--,57.295652185
0.5700000000000001,--undefined--,59.4849247503
0.58,59.8559804946,67.5753382937
0.59,59.2116844012,73.5091451209
0.6,58.056230482,77.1362991275
0.61,56.3552183335,79.8973285565
0.62,54.6648650368,81.8574587471
0.63,53.3729372077,82.5073612371
0.64,52.5333976947,82.0490821499
0.65,51.9080255114,81.1505104502
0.66,51.332673997,80.4731111824
0.67,50.9342358169,80.0481910618
0.68,50.728713241,79.4749996322
0.6900000000000001,50.5290967377,78.9302206336
0.7000000000000001,50.2535804783,78.7177893248
0.71,50.037946012,78.4057144486
0.72,50.1114987815,77.2563733951
0.73,50.5785012247,74.551641701
0.74,51.2345477031,69.7959371324
0.75,51.2326280322,63.2479895911
0.76,46.267812017,55.8664251905
0.77,36.4764141205,48.3494640833
0.78,31.375187144,40.0952644247
0.79,--undefined--,32.1428121109
0.8,--undefined--,31.2163428431
0.81,--undefined--,40.5741185873
0.8200000000000001,--undefined--,56.6395464428
0.8300000000000001,36.650437641,69.6540053595
0.84,37.1774223849,78.277366944
0.85,38.4840531321,83.5495663307
0.86,39.5473700094,86.2627559943
0.87,40.2056458412,86.9780129821
0.88,40.4207401783,86.0591063049
0.89,40.2312583517,83.6308032265
0.9,39.4448805351,80.1295931237
0.91,37.78008397,77.1311370136
0.92,35.5141487426,75.1440053989
0.93,34.1540822133,72.6975500163
0.9400000000000001,--undefined--,72.078764499
0.9500000000000001,--undefined--,74.5949208915
0.96,--undefined--,76.797865162
0.97,--undefined--,77.819363195
0.98,--undefined--,78.2220036182
0.99,--undefined--,76.9361138461
1,--undefined--,71.7425348945
1.01,--undefined--,61.0881782565
1.02,--undefined--,45.2714320303
1.03,--undefined--,37.0511194878
1.04,--undefined--,50.6893113489
1.05,--undefined--,64.9093902707
1.06,--undefined--,76.1721227912
1.07,37.8627996648,83.5555811244
1.08,35.4701705073,86.9288032384
1.09,31.7325939717,87.8413223177
1.1,30.6471373959,88.0319234643
1.11,29.8094327189,87.8314980643
1.12,29.4357666048,87.2266626208
1.1300000000000001,29.9847743041,86.3949163606
1.1400000000000001,32.1557267661,85.5328054681
1.1500000000000001,34.7148986899,85.3677263269
1.16,35.9178177047,85.6996068955
1.17,36.93039773,86.0918885408
1.18,37.7796151162,86.2598733208
1.19,38.6756964691,85.0348800909
1.2,39.7907304007,80.8983923506
1.21,42.5476053777,74.1601588558
1.22,44.7399038435,68.2899273517
1.23,42.8294648635,63.5709524544
1.24,39.6397508717,56.6430302277
1.25,37.6890713951,46.1733496486
1.26,--undefined--,40.3189721148
1.27,--undefined--,44.9513425568
1.28,--undefined--,50.4145162062
1.29,--undefined--,54.277998346
1.3,--undefined--,55.8178586579
1.31,--undefined--,55.5553557624
1.32,--undefined--,54.4842833254
1.33,--undefined--,52.9126739278
1.34,--undefined--,51.6767035788
1.35,--undefined--,51.3020813131
1.36,--undefined--,50.1139845079
1.37,--undefined--,47.5099805215
1.3800000000000001,--undefined--,44.1891182707
1.3900000000000001,--undefined--,40.4673793977
1.4000000000000001,--undefined--,36.9297079269
1.41,--undefined--,33.3104627488
1.42,--undefined--,28.3508932317
1.43,--undefined--,21.3453033889
1.44,--undefined--,14.1264161949
1.45,--undefined--,10.8025650709
1.46,--undefined--,13.1997275128
1.47,--undefined--,17.9288523309
1.48,--undefined--,23.6064961064
1.49,--undefined--,41.167411353
1.5,--undefined--,60.416458356
1.51,36.1552322925,74.0106458844
1.52,38.1273424419,81.9109218294
1.53,40.7316431157,85.2326784879
1.54,44.3207480573,85.7015271311
1.55,46.5943627379,84.6278557397
1.56,48.4965612636,82.3323516459
1.57,50.0315734663,79.610655202
1.58,49.7076522682,76.4801269769
1.59,44.0571071801,73.3924596259
1.6,37.9247598982,73.3055451188
1.61,--undefined--,75.4381605542
1.62,--undefined--,76.5506322608
1.6300000000000001,--undefined--,76.7116805566
1.6400000000000001,--undefined--,76.4898633475
1.6500000000000001,--undefined--,73.5647229101
1.6600000000000001,--undefined--,66.5014081347
1.67,--undefined--,57.0783763486
1.68,--undefined--,48.0881267839
1.69,--undefined--,37.4295961387
1.7,--undefined--,38.1016446059
1.71,--undefined--,55.2876729158
1.72,--undefined--,67.380100561
1.73,--undefined--,74.3470278615
1.74,--undefined--,78.4619429649
1.75,--undefined--,80.747261734
1.76,--undefined--,81.5003549544
1.77,37.9665978143,81.9155047368
1.78,37.9711394099,82.447248302
1.79,38.016900722,82.4121004186
1.8,38.0255035205,81.2695149401
1.81,37.4605172218,78.6910492438
1.82,35.315925249,74.631653941
1.83,33.3936177443,70.8067553259
1.84,--undefined--,71.4184797404
1.85,--undefined--,74.8788625503
1.86,--undefined--,77.3295126923
1.87,--undefined--,78.4473645715
1.8800000000000001,--undefined--,79.0809062777
1.8900000000000001,--undefined--,78.5193685286
1.9000000000000001,--undefined--,76.4911551774
1.9100000000000001,--undefined--,74.6674696759
1.92,--undefined--,73.2753765532
1.93,--undefined--,71.0378760568
1.94,--undefined--,68.2863825956
1.95,--undefined--,70.714945732
1.96,40.5671846088,77.4397194973
1.97,40.3845764812,81.8133444689
1.98,40.2151244842,83.2798709747
1.99,40.3834890494,83.5343552591
2,41.1687502437,83.7683453966
2.0100000000000002,42.3855274235,84.4671735101
2.02,43.7402152215,85.7800576343
2.0300000000000002,44.9249936324,86.6019632075
2.04,45.8076262365,86.1530901129
2.05,46.4222554341,85.1724993263
2.06,46.53768211,84.4715647243
2.07,46.112608875,84.0127749582
2.08,45.3876086974,83.5142976522
2.09,44.5893200286,82.6571174323
2.1,43.9589088314,81.539542167
2.11,43.6691523471,80.3455632714
2.12,43.6011930062,78.7419447911
2.13,43.6466910354,76.2904713873
2.14,43.5859181785,72.7328684971
2.15,42.3066363506,67.7297583081
2.16,39.0024740969,60.2434257658
2.17,36.6245998434,48.6286864207
2.18,--undefined--,34.0334026469
2.19,--undefined--,26.6398864605
2.2,--undefined--,26.2679797769
2.21,--undefined--,28.7301920019
2.22,--undefined--,39.3227784716
2.23,--undefined--,56.4385071524
2.24,38.1379790524,70.4549816478
2.25,39.1237081607,79.2587929829
2.2600000000000002,40.2917755706,83.5442752583
2.27,40.884756644,84.5522469206
2.2800000000000002,41.0072591082,83.7391751044
2.29,40.6962591456,82.0104034279
2.3000000000000003,40.0358753724,79.3494474603
2.31,38.6020285377,75.9406709341
2.32,36.6316992035,72.8260653653
2.33,35.6992132205,70.6472552756
2.34,35.654009927,70.9630438539
2.35,--undefined--,73.4560057087
2.36,--undefined--,75.7435406695
2.37,--undefined--,77.6941181567
2.38,--undefined--,79.1367260194
2.39,--undefined--,79.140342131
2.4,--undefined--,76.8962874003
2.41,--undefined--,71.2761560971
2.42,--undefined--,60.9660197367
2.43,--undefined--,45.314042464
2.44,--undefined--,39.7245866116
2.45,--undefined--,53.5414402957
2.46,--undefined--,65.9540397283
2.47,--undefined--,76.2067791659
2.48,37.5149737471,83.0201585463
2.49,36.8378258589,85.8330746087
2.5,36.1621590687,86.2912971743
2.5100000000000002,35.9199437989,86.6792884737
2.52,36.0110703868,87.484249507
2.5300000000000002,36.0910038761,88.1428493844
2.54,36.0515781386,88.532411936
2.5500000000000003,35.8329208089,88.487436849
2.56,35.4970164218,87.7037582034
2.57,35.2329141226,86.4228817727
2.58,35.2228865212,85.1083142984
2.59,35.6594061697,83.4099839097
2.6,36.1588861249,80.7688190597
2.61,35.9801111503,76.7296466343
2.62,33.1175871437,70.2342697193
2.63,28.7219026588,60.5209721218
2.64,27.1969319904,48.0006581018
2.65,--undefined--,36.5924423367
2.66,--undefined--,36.3445079225
2.67,--undefined--,42.0531291679
2.68,--undefined--,47.5306593549
2.69,--undefined--,50.3275939811
2.7,--undefined--,50.0397617511
2.71,--undefined--,48.3278191772
2.72,--undefined--,47.0130201214
2.73,--undefined--,45.3469119427
2.74,--undefined--,42.8362673677
2.75,--undefined--,40.8489470181
2.7600000000000002,--undefined--,39.8473566987
2.77,--undefined--,39.0111026124
2.7800000000000002,--undefined--,39.0985549545
2.79,--undefined--,40.3251512634
2.8000000000000003,--undefined--,40.31085068
2.81,--undefined--,36.99304202
2.82,--undefined--,29.2643601666
2.83,--undefined--,17.2001880277
2.84,--undefined--,6.74575699343
2.85,--undefined--,3.84227321054
2.86,--undefined--,2.35615519205
2.87,--undefined--,0.886262493158
2.88,--undefined--,1.09413476653
2.89,--undefined--,4.16544251843
2.9,--undefined--,33.1464326857
2.91,--undefined--,59.1473919998
2.92,--undefined--,74.5215604122
2.93,--undefined--,81.8408640559
2.94,--undefined--,83.9926453334
2.95,40.1710305925,84.44411252
2.96,39.6975662613,85.5417047658
2.97,39.4720664297,87.3154300715
2.98,--undefined--,88.0056464102
2.99,--undefined--,85.3931452926
3,--undefined--,78.0709592779
3.0100000000000002,--undefined--,65.8857377383
3.02,--undefined--,51.9510113688
3.0300000000000002,--undefined--,40.8777174152
3.04,--undefined--,31.7342661819
3.0500000000000003,--undefined--,26.3113977042
3.06,--undefined--,24.7615927327
3.0700000000000003,--undefined--,37.9937118675
3.08,--undefined--,57.7524536708
3.09,--undefined--,71.6661931951
3.1,--undefined--,79.3136762531
3.11,31.4555822476,82.0219657874
3.12,31.9586786647,81.4176830417
3.13,32.5161844036,78.1757943065
3.14,30.6802315457,71.3768243882
3.15,28.3446632126,60.4290904077
3.16,28.8744462463,47.5335942362
3.17,--undefined--,43.514888085
3.18,--undefined--,48.3533267002
3.19,--undefined--,51.8927932539
3.2,--undefined--,53.5168582385
3.21,--undefined--,60.7922284334
3.22,34.7955637429,74.1720957545
3.23,34.3234766797,83.6633160782
3.24,34.771272392,87.9620022938
3.25,35.0450453909,88.9370935076
3.2600000000000002,34.7111463757,88.6055122225
3.27,33.9056763042,87.7597505146
3.2800000000000002,32.7898576522,86.4477382454
3.29,31.1364021181,85.099595861
3.3000000000000003,29.3480338038,85.3984356679
3.31,28.6725575664,87.3455125364
3.3200000000000003,28.4676301945,88.7686529298
3.33,28.2078836046,88.9465666802
3.34,27.9623674546,88.583069747
3.35,27.9265124046,88.3670773869
3.36,28.0661859123,88.291675275
3.37,28.1857013677,88.0526974122
3.38,28.2732842239,86.9979528824
3.39,27.622629942,84.5810848311
3.4,26.8715088428,82.4923984331
3.41,27.6599099618,83.3160893174
3.42,28.6008102941,85.5643191408
3.43,28.9868363542,87.0844436309
3.44,29.2755307613,87.5175747413
3.45,29.3318927799,87.0548900238
3.46,29.0682570084,85.5152136784
3.47,28.0513167259,82.273185832
3.48,26.240677938,77.1073797398
3.49,25.1717134494,72.7032927592
3.5,--undefined--,72.6551121797
3.5100000000000002,--undefined--,74.0113410853
3.52,--undefined--,74.3049627393
3.5300000000000002,--undefined--,73.1199166374
3.54,--undefined--,72.9881886541
3.5500000000000003,--undefined--,75.5937746726
3.56,--undefined--,75.3641488969
3.5700000000000003,--undefined--,70.0784283856
3.58,--undefined--,67.1351344346
3.59,--undefined--,69.0213660015
3.6,--undefined--,72.5557532195
3.61,31.1091629529,78.5674566861
3.62,29.8948121144,82.3016313491
3.63,28.7385979328,83.0661836304
3.64,28.5299357625,82.8305580285
3.65,28.5168308932,82.3569970986
3.66,28.701937329,81.7041436638
3.67,29.1082972467,81.2915768781
3.68,29.6607548003,80.9455581056
3.69,30.4337856362,80.3807780119
3.7,31.6151808206,79.8902488191
3.71,33.165141052,79.7400627194
3.72,34.8953274511,80.5031761398
3.73,36.5939542907,81.7514492504
3.74,38.4424609719,81.3567031283
3.75,41.4626721099,78.4813083589
3.7600000000000002,45.4661087401,74.845966938
3.77,48.161732559,72.3068405063
3.7800000000000002,48.8573694047,69.9638466228
3.79,48.1496548118,66.4988253158
3.8000000000000003,45.9879491815,61.2449141081
3.81,42.8962713826,53.8516741592
3.8200000000000003,40.8624479786,43.8020998968
3.83,--undefined--,34.1436991089
3.84,--undefined--,35.1909204144
3.85,--undefined--,41.6081638759
3.86,--undefined--,48.7456478926
3.87,--undefined--,54.3477872066
3.88,--undefined--,56.7466716299
3.89,--undefined--,56.9483344921
3.9,--undefined--,56.560550797
3.91,--undefined--,55.8598130823
3.92,--undefined--,54.6371652425
3.93,--undefined--,52.8535487294
3.94,--undefined--,51.0144076812
3.95,--undefined--,49.6356422365
3.96,--undefined--,48.9791800129
3.97,--undefined--,48.8253072642
3.98,--undefined--,48.7906980688
3.99,--undefined--,48.3429411167
4,--undefined--,46.4771009282
4.01,--undefined--,43.000451077
4.0200000000000005,--undefined--,37.4555183851
4.03,--undefined--,29.1663701081
4.04,--undefined--,22.1833721323
4.05,--undefined--,19.3033639735
4.0600000000000005,--undefined--,14.3937696704
4.07,--undefined--,12.6276947836
4.08,--undefined--,31.6479198648
4.09,--undefined--,54.5159432665
4.1,--undefined--,72.3558473268
4.11,--undefined--,83.4725213994
4.12,--undefined--,88.1855071044
4.13,--undefined--,87.8002490414
4.14,34.176151365,85.409363029
4.15,34.4274116885,84.3010790787
4.16,--undefined--,83.4782877385
4.17,--undefined--,80.8666938151
4.18,--undefined--,75.7508720736
4.19,--undefined--,67.7507154977
4.2,--undefined--,56.5219111882
4.21,--undefined--,43.7413918534
4.22,--undefined--,36.55773291
4.23,--undefined--,33.3141255216
4.24,--undefined--,33.2190052092
4.25,--undefined--,43.6218335649
4.26,--undefined--,56.7339623768
4.2700000000000005,--undefined--,67.6962270198
4.28,--undefined--,75.8126471222
4.29,--undefined--,80.5688849897
4.3,--undefined--,82.4520291905
4.3100000000000005,--undefined--,83.5373087186
4.32,--undefined--,84.6597383858
4.33,--undefined--,84.2557387148
4.34,--undefined--,81.3263931986
4.3500000000000005,--undefined--,76.2317660847
4.36,--undefined--,69.362014408
4.37,--undefined--,66.3919771843
4.38,37.4280203496,74.2380380616
4.39,40.218943759,81.9276748909
4.4,41.2617005827,86.4689046113
4.41,41.815014589,88.4671872845
4.42,41.6971856635,89.0479317911
4.43,40.8723889087,89.0372677996
4.44,39.9972219122,87.7548369755
4.45,39.6327135077,84.1089159798
4.46,--undefined--,78.1490974393
4.47,--undefined--,70.6270439349
4.48,--undefined--,61.1249582498
4.49,--undefined--,48.6435190925
4.5,--undefined--,36.369998132
4.51,--undefined--,29.0323735394
4.5200000000000005,--undefined--,24.809754533
4.53,--undefined--,24.9428264098
4.54,--undefined--,32.3622709949
4.55,--undefined--,39.4341273291
4.5600000000000005,--undefined--,41.4827826773
4.57,--undefined--,37.1988759214
4.58,--undefined--,26.0503278063
4.59,--undefined--,21.1293854716
4.6000000000000005,--undefined--,43.6005607901
4.61,--undefined--,63.2616195013
4.62,--undefined--,75.2409968853
4.63,--undefined--,80.6910729912
4.64,--undefined--,83.0580356531
4.65,--undefined--,86.8891993808
4.66,42.4155452659,90.9337532685
4.67,42.8395841662,92.9757911812
4.68,42.7353995257,92.6511939349
4.69,42.4023359271,89.9190654166
4.7,42.31008879,85.5758710305
4.71,42.0857884503,81.3042589255
4.72,39.5455319247,77.9855531558
4.73,36.778574839,75.6227403675
4.74,--undefined--,75.8171958842
4.75,--undefined--,78.4277375585
4.76,--undefined--,81.0249817314
4.7700000000000005,--undefined--,83.1616459956
4.78,--undefined--,84.2336949545
4.79,--undefined--,82.5083973405
4.8,--undefined--,76.7207872106
4.8100000000000005,--undefined--,66.6010371756
4.82,--undefined--,52.8268117624
4.83,--undefined--,42.6611730791
4.84,--undefined--,49.4168421066
4.8500000000000005,--undefined--,57.0080202424
4.86,--undefined--,58.1160703119
4.87,--undefined--,52.4212244125
4.88,--undefined--,48.7107794757
4.89,--undefined--,62.1339579242
4.9,33.6321800802,74.4689171762
4.91,33.6135144124,81.8642098208
4.92,32.8140372165,85.7412732477
4.93,32.0759888117,87.9348611619
4.94,31.3822351277,90.0212053698
4.95,30.770212797,91.710512566
4.96,30.2167417943,91.8722660886
4.97,29.6757295564,90.9358344617
4.98,29.0963595154,90.1261420896
4.99,28.3860965996,89.6052581603
5,27.6343803718,89.2161814765
5.01,26.9248360155,89.5173497843
5.0200000000000005,26.1551536495,90.6416563008
5.03,25.3958887893,91.2333388704
5.04,24.8293332946,89.8887120318
5.05,24.6526570877,86.1042976605
5.0600000000000005,--undefined--,80.6541326482
5.07,--undefined--,74.3506695452
5.08,--undefined--,66.1215467988
5.09,--undefined--,54.8382183125
5.1000000000000005,--undefined--,41.7526074546
5.11,--undefined--,37.2396393876
5.12,--undefined--,50.978141529
5.13,--undefined--,63.7643550614
5.14,--undefined--,71.0188766887
5.15,30.7620452333,73.1961722691
5.16,31.7359674125,70.0125769205
5.17,30.2941087428,60.8407464199
5.18,29.8181758509,47.9966296972
5.19,--undefined--,46.096384725
5.2,--undefined--,49.2480311326
5.21,--undefined--,47.8362765539
5.22,--undefined--,44.2020633191
5.23,--undefined--,53.4442359203
5.24,--undefined--,69.476255555
5.25,32.5647827528,79.5281983453
5.26,31.7289498844,83.3731416003
5.2700000000000005,30.6602023707,84.3315050964
5.28,30.1679208436,86.3655544803
5.29,30.1687263007,88.5797475715
5.3,30.2135946297,89.4819239939
5.3100000000000005,30.2324626248,89.1119240619
5.32,30.0709230518,88.0954466627
5.33,29.9193365144,87.1699508691
5.34,29.7542175696,85.1554796866
5.3500000000000005,28.1879108406,80.4111146081
5.36,26.3125547798,73.7787144829
5.37,27.2098877251,72.1014505124
5.38,29.1654025834,77.6914205731
5.39,30.3988115076,82.4012150086
5.4,30.6530564355,84.0051253713
5.41,29.6286563005,83.4927037674
5.42,28.0018780939,81.6626527501
5.43,27.5679859964,78.2812860265
5.44,27.6022304245,74.7250588934
5.45,--undefined--,74.3893401185
5.46,--undefined--,75.7673854118
5.47,--undefined--,77.1785041225
5.48,--undefined--,78.4733681147
5.49,--undefined--,76.9946091652
5.5,--undefined--,70.8577977424
5.51,--undefined--,64.9923417971
5.5200000000000005,--undefined--,69.1250794028
5.53,--undefined--,73.8366229881
5.54,--undefined--,75.2015493891
5.55,--undefined--,78.3886471166
5.5600000000000005,31.1489903932,82.394025003
5.57,30.2316382648,83.366504221
5.58,29.608450265,82.7097458411
5.59,29.3785900727,82.4081173412
5.6000000000000005,29.3719162051,82.1002440944
5.61,29.3639665214,81.3230863798
5.62,29.3540167271,80.9343161545
5.63,29.4185369266,81.6823199008
5.64,29.4015888348,82.864677698
5.65,29.0356145992,83.7528112015
5.66,27.9446579441,84.5707575725
5.67,26.3735072918,85.2108713797
5.68,25.2174683024,84.6396613012
5.69,24.7068513984,82.5825453257
5.7,--undefined--,79.4325655476
5.71,--undefined--,74.9403390134
5.72,--undefined--,68.3368192945
5.73,--undefined--,59.4035058208
5.74,--undefined--,53.8069218377
5.75,--undefined--,58.09565029
5.76,--undefined--,62.9347228212
5.7700000000000005,--undefined--,65.5187597887
5.78,--undefined--,65.0881874862
5.79,--undefined--,60.5198604363
