time,pitch,intensity
0.01,--undefined--,--undefined--
0.02,--undefined--,--undefined--
0.03,--undefined--,--undefined--
0.04,--undefined--,--undefined--
0.05,--undefined--,--undefined--
0.06,153.13838261031717,--undefined--
0.07,151.65712933229094,60.736664133292635
0.08,149.20658103694026,62.989022902065656
0.09,145.85943128142995,64.46290231089253
0.1,142.88974785033207,65.493163570955
0.11,141.60760617336183,66.27885653345176
0.12,141.25182718705426,66.86793573735076
0.13,141.06077228120955,67.31077208357193
0.14,140.64023998011768,67.74576023653562
0.15,139.7427625034588,68.20046711602673
0.16,138.85700585608103,68.50307892978675
0.17,137.9555934685357,68.49046446745437
0.18,136.731996097729,68.13749100336064
0.19,135.77170027278024,67.49698949208892
0.2,135.19499871549203,66.67517815266915
0.21,134.4239120463206,65.93118757796744
0.22,133.83910589981232,65.5653627222054
0.23,133.91444243574782,65.55734770055878
0.24,134.77624293920243,65.65481301102749
0.25,137.6421488556313,65.73934950772748
0.26,140.16283909703458,65.85289438843554
0.27,144.26941298931484,66.13554652533249
0.28,147.48164912943764,66.78591074731286
0.29,150.02435552201905,67.90961430761627
0.3,152.08922540751644,69.37786565908563
0.31,153.17727575008485,70.8970449045544
0.32,154.28127395762442,72.26741362720074
0.33,155.62554816301272,73.4309399914236
0.34,156.68140977484978,74.36663709783625
0.35000000000000003,157.55876224837633,75.0558507263037
0.36,158.7710620495838,75.50262970010176
0.37,160.3394892713164,75.72576315902765
0.38,161.83884814615516,75.76245355767861
0.39,163.1202755028117,75.69782993081373
0.4,164.4426822771681,75.64093716518829
0.41000000000000003,166.19072646558828,75.64025587251585
0.42,168.2541725898287,75.65921966360718
0.43,170.79019562148255,75.67201065363483
0.44,173.25779929120375,75.69053397015783
0.45,174.90174248473994,75.66721939927406
0.46,176.33538295395454,75.4899824805316
0.47000000000000003,178.23790590144733,75.1076540184978
0.48,180.1935617445975,74.60963644387908
0.49,181.8692896747336,74.17115477119229
0.5,183.50795536197234,73.90056110095709
0.51,185.34124171602934,73.74158211029393
0.52,187.68064770598335,73.56248480815026
0.53,191.03506869229028,73.30201838800215
0.54,194.24522775331914,73.00390767311076
0.55,196.7719405363618,72.75119648594547
0.56,200.26213828254964,72.59940517870665
0.5700000000000001,204.25308983278927,72.52850239706886
0.58,209.80234685662174,72.43120106648426
0.59,214.85458665842316,72.20630564380213
0.6,218.2401852905063,71.83796762756842
0.61,224.45919992404095,71.3827284297815
0.62,230.350317617277,70.90489402732989
0.63,235.3324821846514,70.4224600346721
0.64,240.4578838625685,69.92808767931601
0.65,245.03485858808693,69.42355937573477
0.66,248.9214837973913,68.89145195027807
0.67,253.72337250464554,68.33387109061532
0.68,256.6095994801382,67.85129730024181
0.6900000000000001,255.8019870558344,67.52743671140138
0.7000000000000001,252.86823322290667,67.31611960057967
0.71,246.49765452739067,67.1521463506503
0.72,238.039355728661,66.99513476970338
0.73,228.2355883080219,66.7446455908785
0.74,217.6577029200223,66.30621782149821
0.75,200.6165210601662,65.67580708420613
0.76,182.46802220385948,64.84500900499926
0.77,170.5258837606111,63.760968077106185
0.78,157.6929210557457,62.48303885950386
0.79,146.36270977172813,61.30824007287502
0.8,137.3913303602363,60.64892245398831
0.81,133.8169602204762,60.72998891803971
0.8200000000000001,136.06337512994594,61.47564148261836
0.8300000000000001,138.91564030580665,62.58515261230764
0.84,140.8978252703053,63.693881613946445
0.85,141.83359242846674,64.63132156950267
0.86,141.42438287674543,65.44906095670795
0.87,140.02171173088962,66.22094238120108
0.88,137.92606708791567,66.91345732990689
0.89,136.8413955175456,67.40444038341494
0.9,136.70203748948077,67.48989764436884
0.91,136.57777793363675,66.89337036798291
0.92,136.07094962812997,65.33560785204531
0.93,--undefined--,62.607430264630764
0.9400000000000001,--undefined--,58.65026486026943
0.9500000000000001,--undefined--,53.81278916998275
0.96,--undefined--,49.63483395156403
0.97,--undefined--,49.199257813196304
0.98,--undefined--,52.302773483384286
0.99,--undefined--,55.48494030275459
1,--undefined--,57.74784690003829
1.01,--undefined--,59.24525075410814
1.02,--undefined--,60.28541032454406
1.03,--undefined--,61.08460416548081
1.04,--undefined--,61.71275501821119
1.05,--undefined--,62.190402258430325
1.06,--undefined--,62.609068676326814
1.07,--undefined--,63.13452736547651
1.08,--undefined--,63.85243697489493
1.09,--undefined--,64.58446057334132
1.1,--undefined--,64.93361417602493
1.11,--undefined--,64.52789572994382
1.12,--undefined--,63.14731381122655
1.1300000000000001,--undefined--,60.709560319265016
1.1400000000000001,--undefined--,57.345640191980195
1.1500000000000001,--undefined--,53.85374925861954
1.16,--undefined--,51.802575299451476
1.17,--undefined--,51.194089867888025
1.18,--undefined--,50.72383749015138
1.19,--undefined--,50.1790859267538
1.2,--undefined--,49.927217073014106
1.21,--undefined--,50.186135208137955
1.22,--undefined--,50.721485382335615
1.23,--undefined--,51.23739834712009
1.24,--undefined--,52.4097282815678
1.25,--undefined--,56.01147456089188
1.26,144.60874347464954,60.85190079722463
1.27,145.28452011561487,64.69106941093699
1.28,145.87604949726364,67.18379646206276
1.29,146.1912531594865,68.61647071978146
1.3,147.06317046030213,69.43653405855993
1.31,149.17086017095573,70.01746856650789
1.32,152.68185352903586,70.47279474786592
1.33,156.41848079984211,70.81364593055949
1.34,161.72219851556252,71.1490861567097
1.35,167.4254001793679,71.56008720214433
1.36,174.04421754653777,71.95513407444173
1.37,180.9204503603881,72.19113597410949
1.3800000000000001,189.67309865295462,72.21967226151193
1.3900000000000001,196.66308853212527,72.0758752703372
1.4000000000000001,201.60377583706287,71.80701631398735
1.41,207.51247166508412,71.42939335477844
1.42,213.71794814475282,70.98112434439484
1.43,219.8155104650654,70.6219815226253
1.44,225.89158478469884,70.5479890015344
1.45,230.4194452409045,70.70804991951341
1.46,233.51318155862893,70.8167536383998
1.47,236.17322334592265,70.67241602485966
1.48,237.96472348551572,70.3202488259949
1.49,237.79481245114954,70.0290552511789
1.5,235.44233148400355,70.01480285565656
1.51,231.94569165766382,70.03106090694553
1.52,223.33270127103128,69.51883662184322
1.53,217.04895187198449,68.05258924062946
1.54,208.41523890399796,65.511985763509
1.55,--undefined--,62.323927292999414
1.56,--undefined--,59.816507585429896
1.57,--undefined--,58.86746841201807
1.58,--undefined--,58.46486649715312
1.59,--undefined--,58.00709149412559
1.6,--undefined--,57.633612982737006
1.61,--undefined--,57.465750713744136
1.62,--undefined--,57.608310694674685
1.6300000000000001,--undefined--,58.23202871921095
1.6400000000000001,--undefined--,59.016824821444175
1.6500000000000001,--undefined--,59.3692506248332
1.6600000000000001,--undefined--,59.315648540997515
1.67,--undefined--,59.594322148240344
1.68,--undefined--,60.57872670921866
1.69,--undefined--,62.05314939870916
1.7,--undefined--,64.54603467453059
1.71,--undefined--,67.9639383706144
1.72,--undefined--,70.95617716442447
1.73,--undefined--,72.89001984194337
1.74,--undefined--,73.81664356157738
1.75,--undefined--,74.01382910709022
1.76,138.73448118677996,73.79822803852447
1.77,138.13510779404987,73.41257313491235
1.78,137.62298563767348,73.02571524764272
1.79,137.5737539648379,72.78206855468723
1.8,137.67474218955905,72.70231298146358
1.81,137.89480884951558,72.60314004164441
1.82,138.52971256353908,72.28101863953825
1.83,141.19293801611963,71.71962828878037
1.84,144.0121916182427,71.07934922032032
1.85,145.8102692748399,70.51547763915428
1.86,147.446887825271,70.02465672917339
1.87,150.2988742889417,69.53921173294911
1.8800000000000001,153.3406013589164,69.04818960482731
1.8900000000000001,158.93892669115456,68.57200940317402
1.9000000000000001,163.98982508917308,68.13705122803053
1.9100000000000001,171.14157174879156,67.81342071212164
1.92,181.28447103530772,67.67348110423416
1.93,190.40677754385175,67.6850281728435
1.94,195.98276766854426,67.72978817337445
1.95,202.49878989163142,67.72434290450187
1.96,209.25036941034097,67.65090619832979
1.97,213.88040186546314,67.52673918974087
1.98,217.41530417717493,67.42487548277657
1.99,219.49168562738316,67.4536125445747
2,218.55368769562352,67.55336380292286
2.0100000000000002,214.63288408497337,67.39473695489726
2.02,208.8443841770926,66.61441413279599
2.0300000000000002,198.89430678111532,65.06542721722812
2.04,--undefined--,63.002450650568036
2.05,--undefined--,61.09812891548568
2.06,--undefined--,59.83157184461105
2.07,--undefined--,59.578527698258625
2.08,144.4347902859303,61.32203771962192
2.09,144.44259031320664,64.0942542074798
2.1,140.01285061006072,66.18360422763013
2.11,133.88439344117367,67.16284853070225
2.12,130.8133619104593,67.09852369122089
2.13,128.38282230805225,66.20202416102167
2.14,125.47369720489034,64.73210510628282
2.15,121.99117739876444,62.82333702573143
2.16,119.3917476729432,60.334561573495485
2.17,--undefined--,56.95649748549565
2.18,--undefined--,52.50402570979372
2.19,--undefined--,47.46894503824723
2.2,--undefined--,43.81668671043335
2.21,--undefined--,42.9110169011014
2.22,--undefined--,42.712568652418994
2.23,--undefined--,42.192011772476704
2.24,--undefined--,41.51758591831749
2.25,--undefined--,41.010685669985776
2.2600000000000002,--undefined--,40.62632766027603
2.27,--undefined--,40.144825920555604
2.2800000000000002,--undefined--,40.80828759406863
2.29,--undefined--,44.225622353850284
2.3000000000000003,--undefined--,50.90580441739277
2.31,--undefined--,57.324656139001746
2.32,--undefined--,62.99654028195959
2.33,152.56727436587616,67.51469702411211
2.34,152.31397589655225,70.89653014654189
2.35,153.02742102237406,73.36485818104619
2.36,155.14542104641743,75.09648165537759
2.37,158.29319130481562,76.13186898270845
2.38,161.94508307075677,76.47624790621727
2.39,165.82719281828494,76.25436445590579
2.4,171.51607831855242,75.73326256309788
2.41,178.13437213682792,75.0827537346421
2.42,181.38906792315174,74.10693895813388
2.43,181.52226467283126,72.44841610085985
2.44,181.68371780727108,70.02586161801484
2.45,182.3986034828569,67.36976509290135
2.46,182.74412561523422,65.54788559250024
2.47,184.81948989257555,64.96687129425816
2.48,192.52724894301127,65.07999636649798
2.49,196.45512661400647,65.68954668224686
2.5,200.5196698596448,66.79258856609987
2.5100000000000002,203.48791481152156,68.0591493780768
2.52,202.37868447523823,69.18575915040097
2.5300000000000002,199.71338572714123,70.1473981685479
2.54,197.39762583545053,71.03768044852934
2.5500000000000003,195.39028656707217,71.93139405020297
2.56,193.52092757589014,72.75838998759605
2.57,192.00801633407002,73.27552710741405
2.58,190.48111335894436,73.27182283541566
2.59,188.16266941016997,72.70250427456331
2.6,184.76396719721444,71.60059447592734
2.61,181.27108137345724,69.94778639845818
2.62,176.9909881901114,67.70079013209718
2.63,170.32524738600068,64.98715106679383
2.64,163.38343974720806,62.35399786787955
2.65,157.6327502182782,60.80379002946359
2.66,151.4273015777432,60.84517293406007
2.67,145.01388988154756,61.94088765613061
2.68,137.75954029577548,63.6795834150869
2.69,132.16789102295246,65.71474090625038
2.7,129.04841727455667,67.52152668340703
2.71,128.05597265657164,68.80914589760495
2.72,128.19971767034735,69.58859036269642
2.73,128.62924103566763,69.98160306820962
2.74,129.04143842186323,70.12248364397782
2.75,129.14488133825978,70.11462336609952
2.7600000000000002,128.67104150938192,69.97046044853389
2.77,127.57703871272845,69.566209821258
2.7800000000000002,126.08493175584715,68.71533917779482
2.79,124.5801705307791,67.2942004789148
2.8000000000000003,123.48051924952497,65.31734470460218
2.81,122.41111807838776,62.90238495172552
2.82,119.34934101313758,60.12538970334701
2.83,--undefined--,57.16493233524826
2.84,--undefined--,55.424250976028276
2.85,--undefined--,57.008931078564274
2.86,--undefined--,59.6059688513611
2.87,--undefined--,61.09522707186117
2.88,--undefined--,61.196466044507254
2.89,--undefined--,59.94520333002984
2.9,--undefined--,57.42802324110817
2.91,--undefined--,53.86885502830703
2.92,--undefined--,50.67623164608223
2.93,--undefined--,51.674264878001914
2.94,--undefined--,55.39767493227047
2.95,144.62220415931438,58.454768777378916
2.96,137.251002324211,60.55313668406652
2.97,128.31442309023822,61.76103435073956
2.98,124.35875810193848,62.13929729453424
2.99,121.661559033286,61.814225357966784
3,117.42983518170428,61.06590665089913
3.0100000000000002,114.81029393290272,60.31951826646779
3.02,113.94180861132568,59.865236636353245
3.0300000000000002,113.64189901645585,59.55203133233881
3.04,113.5644873216534,58.98711781303564
3.0500000000000003,--undefined--,57.858321991908944
3.06,--undefined--,55.98951325406662
3.0700000000000003,--undefined--,53.28977362397313
3.08,--undefined--,49.79702444092222
3.09,--undefined--,46.006209948410444
3.1,--undefined--,43.193101233459835
3.11,--undefined--,42.29484380443743
3.12,--undefined--,42.72724415407184
3.13,--undefined--,45.1844258788806
3.14,--undefined--,52.71995956705566
3.15,--undefined--,60.09867687122345
3.16,--undefined--,65.68330955482207
3.17,151.72135767340612,69.71357227749637
3.18,151.9667815748109,72.54727007523462
3.19,152.43485013836136,74.47263972040472
3.2,153.63662129231935,75.71444004059919
3.21,155.69840597294166,76.46902992095184
3.22,163.23820576155728,76.89942576710276
3.23,168.38025152066498,77.09319579149664
3.24,174.01150397423945,77.10803059876528
3.25,179.75121156641382,77.07083520334126
3.2600000000000002,189.14343510528943,77.10436202926113
3.27,195.23482155364368,77.15245852602622
3.2800000000000002,205.25006977125793,77.05584795514666
3.29,215.0242987505159,76.75874194386286
3.3000000000000003,221.03847524245782,76.33240380076832
3.31,232.5178372304305,75.8845931525814
3.3200000000000003,246.3187835007174,75.48601920835114
3.33,261.0097020031641,75.11785259380915
3.34,270.8185650259739,74.68192475606703
3.35,276.59185500554355,74.087919186892
3.36,280.67455023124666,73.33023830468
3.37,282.1374964426833,72.52584275022784
3.38,280.667821755428,71.86785277288155
3.39,277.657916050084,71.40826026145194
3.4,274.5258079028709,70.88111155287697
3.41,269.67756857849395,69.87547100138495
3.42,261.44537290540876,68.10790389316098
3.43,252.7779790052025,65.69217271037587
3.44,--undefined--,63.52223464799848
3.45,--undefined--,62.79695670735025
3.46,--undefined--,63.2909438424076
3.47,--undefined--,64.20007478364008
3.48,--undefined--,65.08577236904308
3.49,--undefined--,65.66907438624418
3.5,--undefined--,65.9576371171456
3.5100000000000002,--undefined--,66.19408233735813
3.52,--undefined--,66.54316708055723
3.5300000000000002,--undefined--,66.89033737787906
3.54,--undefined--,67.01891278852462
3.5500000000000003,--undefined--,66.85366046961738
3.56,--undefined--,66.47819478685146
3.5700000000000003,--undefined--,65.99895411978602
3.58,--undefined--,65.52495954452867
3.59,--undefined--,65.23220938409637
3.6,--undefined--,65.16217703477692
3.61,--undefined--,65.08237078931269
3.62,--undefined--,64.74082646491098
3.63,--undefined--,64.0243624021585
3.64,--undefined--,62.92313833767565
3.65,--undefined--,61.4595491940695
3.66,--undefined--,59.60192468033975
3.67,--undefined--,57.28499884398181
3.68,--undefined--,54.63323908626493
3.69,--undefined--,52.18914104980751
3.7,--undefined--,50.64266076992782
3.71,--undefined--,50.13513465582006
3.72,--undefined--,50.41576311048877
3.73,--undefined--,51.24969927874045
3.74,--undefined--,52.227745004965016
3.75,--undefined--,52.80742370261629
3.7600000000000002,--undefined--,52.712866629973746
3.77,--undefined--,52.12140395956367
3.7800000000000002,--undefined--,51.53762344669971
3.79,--undefined--,51.26700175777376
3.8000000000000003,--undefined--,51.137917557880066
3.81,--undefined--,51.01248286151108
3.8200000000000003,--undefined--,50.94105387628211
3.83,--undefined--,50.88777937281489
3.84,--undefined--,50.82745253234923
3.85,--undefined--,50.91005416774932
3.86,--undefined--,51.12384763590968
3.87,--undefined--,51.18766964929352
3.88,--undefined--,50.95228264993723
3.89,--undefined--,50.53809921671183
3.9,--undefined--,50.20288580978478
3.91,--undefined--,50.183968070317384
3.92,--undefined--,50.51245988527121
3.93,--undefined--,51.06549600369129
3.94,--undefined--,51.704287923181376
3.95,--undefined--,52.26381277285436
3.96,--undefined--,52.575475273133144
3.97,--undefined--,52.48684188627398
3.98,--undefined--,51.86822890027115
3.99,--undefined--,50.807036788548146
4,--undefined--,50.17425361532877
4.01,--undefined--,51.47474549917727
4.0200000000000005,--undefined--,54.01003949243029
4.03,346.7101166622154,55.99961719155965
4.04,353.1325000029052,56.9988903760745
4.05,358.83417334633793,57.32448156693422
4.0600000000000005,360.12796810901176,57.63754156733174
4.07,359.71185042803677,58.380820855358905
4.08,357.75679542602455,59.283285363282936
4.09,--undefined--,59.892459769591696
4.1,--undefined--,60.244634671775586
4.11,--undefined--,60.86987902728549
4.12,--undefined--,61.97894533830797
4.13,--undefined--,62.99087030925408
4.14,--undefined--,63.7769001692626
4.15,147.1722025527358,65.41260420885888
4.16,150.17369260672496,68.41771578993033
4.17,154.38017008774258,71.47829032601464
4.18,157.30614173858118,73.832182543471
4.19,159.1474618003214,75.43057249140988
4.2,160.43697767453875,76.37421318425585
4.21,161.30391219315712,76.7806152260843
4.22,162.15208197028616,76.82417681773065
4.23,163.553579393281,76.73947524889239
4.24,165.27374281546432,76.73010436999972
4.25,166.71569872920034,76.85457627198798
4.26,168.36521897266223,77.10247421961007
4.2700000000000005,170.98067509240022,77.48415445664438
4.28,173.47942776973485,77.90766277431366
4.29,175.42192267849046,78.18257662034786
4.3,176.91749156828539,78.23813843506876
4.3100000000000005,177.73624943690882,78.15813497136718
4.32,178.0766073933784,78.04840208196912
4.33,177.97478885723098,77.97390608564542
4.34,177.09122897912383,77.96495538166352
4.3500000000000005,175.9041550344354,77.92791180715062
4.36,175.16274672237088,77.60823566399709
4.37,174.54281197025236,76.72649582868591
4.38,172.62721388823743,75.11381803361422
4.39,170.3961744214849,72.74836865881079
4.4,171.43895233330656,69.7543483271803
4.41,174.91566808657583,66.43764696113605
4.42,176.21262872003993,63.38265300427808
4.43,175.88173604329208,61.14879296529406
4.44,175.75682696362313,59.657444020837524
4.45,176.27769313396672,58.83576012362502
4.46,--undefined--,59.15482687309834
4.47,--undefined--,60.24689107346889
4.48,--undefined--,61.17752231825759
4.49,--undefined--,61.7116358204207
4.5,--undefined--,61.950722624543474
4.51,--undefined--,62.073437152549005
4.5200000000000005,--undefined--,63.112250419458114
4.53,192.84143275377443,66.27910629563705
4.54,192.4856736585678,70.0065832440809
4.55,191.48355243281648,72.89931563106849
4.5600000000000005,189.07453950838027,74.85830922598277
4.57,185.00795142699346,76.09589161782375
4.58,182.23594344626903,76.823389182789
4.59,180.86492945345907,77.1889887970415
4.6000000000000005,179.30284888762773,77.31216265094652
4.61,177.59644410918523,77.28053622711921
4.62,176.60477229567852,77.08314007583498
4.63,176.33515810510676,76.65280133909636
4.64,176.1864628488417,76.03911606059884
4.65,175.53249516637462,75.48365166654305
4.66,174.23049965364112,75.21216588642878
4.67,172.90112795205056,75.14507540502075
4.68,172.12208286329974,74.98427886855944
4.69,171.83640388434702,74.49262915247404
4.7,171.63270366380297,73.59526699572307
4.71,171.2675789913805,72.4157441180451
4.72,171.00088712233992,71.35227870800605
4.73,171.49427194317008,70.91982458541857
4.74,172.0689308821372,71.16371320999197
4.75,171.88796675427812,71.63618943792719
4.76,171.21121002901793,72.00565593691972
4.7700000000000005,170.5723620298205,72.20449709833476
4.78,170.15637077828168,72.2733327248628
4.79,169.7341556565264,72.23467471011406
4.8,169.0974989109159,72.09968791000594
